localTime,remoteTime,label,bvp,signalOK
1622094372393,612983,,1680,0
1622094372393,613003,,1725,0
1622094372393,613023,,1782,0
1622094372393,613043,,1735,0
1622094372393,613063,,1715,0
1622094372393,613083,,1719,0
1622094372393,613103,,1808,0
1622094372393,613123,,1776,0
1622094372393,613143,,1680,0
1622094372393,613163,,1722,0
1622094372393,613183,,1808,0
1622094372393,613204,,1935,0
1622094372393,613224,,1909,0
1622094372393,613244,,1783,0
1622094372393,613264,,1791,0
1622094372393,613284,,1834,0
1622094372393,613304,,1921,0
1622094372393,613324,,1853,0
1622094372393,613344,,1697,0
1622094372393,613364,,1651,0
1622094372393,613384,,1696,0
1622094372393,613404,,1808,0
1622094372393,613425,,1811,0
1622094372393,613445,,1696,0
1622094372393,613465,,1678,0
1622094375240,613485,,1729,0
1622094375240,613505,,1774,0
1622094375240,613525,,1808,1
1622094375240,613545,,1807,1
1622094375240,613565,,1821,1
1622094375240,613585,,1808,1
1622094375240,613605,,1690,1
1622094375240,613625,,1588,1
1622094375240,613646,,1486,1
1622094375240,613666,,1457,1
1622094375240,613686,,1566,1
1622094375240,613706,,1738,1
1622094375240,613726,,1831,1
1622094375240,613746,,1794,1
1622094375240,613766,,1762,1
1622094375240,613786,,1845,1
1622094375240,613806,,1913,1
1622094375240,613826,,1998,1
1622094375240,613846,,1940,1
1622094375240,613867,,1865,1
1622094375240,613887,,1809,1
1622094375240,613907,,1754,1
1622094375240,613927,,1727,1
1622094375240,613947,,1717,1
1622094375240,613967,,1663,1
1622094377290,613987,,1726,1
1622094377290,614007,,1793,1
1622094377290,614027,,1846,1
1622094377290,614047,,1902,1
1622094377290,614067,,1770,1
1622094377290,614088,,1750,1
1622094377290,614108,,1765,1
1622094377290,614128,,1839,1
1622094377290,614148,,1774,1
1622094377290,614168,,1626,1
1622094377290,614188,,1619,1
1622094377290,614208,,1664,1
1622094377290,614228,,1772,1
1622094377290,614248,,1731,1
1622094377290,614268,,1611,1
1622094377290,614288,,1616,1
1622094377290,614309,,1689,1
1622094377290,614329,,1825,1
1622094377290,614349,,1827,1
1622094377290,614369,,1730,1
1622094377290,614389,,1753,1
1622094377290,614409,,1835,1
1622094377290,614429,,1947,1
1622094377290,614449,,1927,1
1622094377290,614469,,1803,1
1622094380386,618007,,1895,1
1622094380386,618027,,1968,1
1622094380386,618047,,2032,0
1622094380386,618067,,2071,0
1622094380386,618087,,2063,0
1622094380386,618107,,2061,0
1622094380386,618127,,2011,0
1622094380386,618147,,1855,0
1622094380386,618167,,1758,0
1622094380386,618187,,1706,0
1622094380386,618207,,1675,0
1622094380386,618227,,1671,0
1622094380386,618247,,1680,0
1622094380386,618267,,1627,0
1622094380386,618288,,1707,0
1622094380386,618308,,1785,0
1622094380386,618328,,1892,0
1622094380386,618348,,1840,0
1622094380386,618368,,1693,0
1622094380386,618388,,1686,0
1622094380386,618408,,1718,0
1622094380386,618428,,1796,0
1622094380386,618448,,1735,0
1622094380386,618468,,1600,0
1622094380386,618488,,1634,0
1622094380599,618508,,1729,0
1622094380599,618528,,1823,0
1622094380599,618548,,1901,0
1622094380599,618568,,1950,0
1622094380599,618588,,1958,0
1622094380599,618608,,1991,0
1622094380599,618628,,1899,0
1622094380599,618648,,1795,0
1622094380599,618668,,1668,0
1622094380599,618688,,1680,0
1622094380599,618708,,1761,0
1622094380599,618729,,1873,0
1622094380599,618749,,1854,0
1622094380599,618769,,1728,0
1622094380599,618789,,1674,0
1622094380599,618809,,1712,0
1622094380599,618829,,1817,0
1622094380599,618849,,1808,0
1622094380599,618869,,1690,0
1622094380599,618889,,1633,0
1622094380599,618909,,1665,0
1622094380599,618929,,1745,0
1622094380599,618949,,1744,0
1622094380599,618969,,1653,0
1622094380599,618989,,1573,0
1622094380785,619010,,1620,0
1622094380785,619030,,1675,0
1622094380785,619050,,1765,0
1622094380785,619070,,1776,0
1622094380785,619090,,1689,0
1622094380785,619110,,1722,0
1622094380785,619130,,1804,0
1622094380785,619150,,1878,0
1622094380785,619171,,1819,0
1622094380785,619191,,1718,0
1622094380785,619211,,1763,0
1622094380785,619231,,1815,0
1622094380785,619251,,1904,0
1622094380785,619271,,1840,0
1622094380785,619291,,1774,0
1622094380785,619311,,1744,0
1622094380785,619331,,1703,0
1622094380785,619351,,1677,0
1622094380785,619371,,1671,0
1622094380785,619392,,1626,0
1622094380785,619412,,1713,0
1622094380785,619432,,1808,0
1622094380785,619452,,1904,0
1622094380785,619472,,1846,0
1622094380785,619492,,1697,0
1622094381355,620015,,1665,0
1622094381355,620035,,1710,0
1622094381355,620056,,1796,0
1622094381355,620076,,1827,0
1622094381355,620096,,1729,0
1622094381355,620116,,1646,0
1622094381355,620136,,1681,0
1622094381355,620156,,1785,0
1622094381355,620176,,1810,0
1622094381355,620196,,1741,0
1622094381355,620216,,1654,0
1622094381355,620236,,1699,0
1622094381355,620256,,1776,0
1622094381355,620277,,1835,0
1622094381355,620297,,1747,0
1622094381355,620317,,1696,0
1622094381355,620337,,1682,0
1622094381355,620357,,1707,0
1622094381355,620377,,1750,0
1622094381355,620397,,1807,0
1622094381355,620417,,1856,0
1622094381355,620437,,1899,0
1622094381355,620457,,1904,0
1622094381355,620477,,1900,0
1622094381355,620498,,1889,0
1622094381524,620518,,1821,0
1622094381524,620538,,1881,0
1622094381524,620558,,1976,0
1622094381524,620578,,2000,0
1622094381524,620598,,1911,0
1622094381524,620618,,1748,0
1622094381524,620638,,1744,0
1622094381524,620658,,1776,0
1622094381524,620678,,1877,0
1622094381524,620698,,1841,0
1622094381524,620719,,1693,0
1622094381524,620739,,1703,0
1622094381524,620759,,1762,0
1622094381524,620779,,1806,0
1622094381524,620799,,1885,0
1622094381524,620819,,1801,0
1622094381524,620839,,1753,0
1622094381524,620859,,1709,1
1622094381524,620879,,1680,1
1622094381524,620899,,1675,1
1622094381524,620919,,1638,1
1622094381524,620940,,1680,1
1622094381524,620960,,1793,1
1622094381524,620980,,1937,1
1622094381524,621000,,1954,1
1622094381624,621020,,1849,1
1622094381624,621040,,1871,1
1622094381624,621060,,1955,0
1622094381624,621080,,1995,0
1622094381624,621100,,1936,0
1622094381624,621120,,1837,0
1622094381624,621140,,1783,0
1622094381624,621161,,1857,0
1622094381624,621181,,1969,0
1622094381624,621201,,1989,0
1622094381624,621221,,1877,0
1622094381624,621241,,1773,0
1622094381624,621261,,1783,0
1622094381624,621281,,1867,0
1622094381624,621301,,1902,0
1622094381624,621321,,1819,0
1622094381624,621341,,1729,0
1622094381624,621361,,1801,0
1622094381624,621382,,1871,0
1622094381624,621402,,1963,0
1622094381624,621422,,1889,0
1622094381624,621442,,1783,0
1622094381624,621462,,1728,0
1622094381624,621482,,1681,0
1622094381624,621502,,1666,0
1622094381639,621522,,1617,0
1622094381639,621542,,1712,0
1622094381639,621562,,1839,0
1622094381639,621582,,1909,0
1622094381639,621603,,1868,0
1622094381639,621623,,1821,0
1622094381639,621643,,1791,0
1622094381639,621663,,1834,0
1622094381639,621683,,1853,0
1622094381639,621703,,1875,0
1622094381639,621723,,1888,0
1622094381639,621743,,1895,0
1622094381639,621763,,1937,0
1622094381639,621783,,1946,0
1622094381639,621803,,1941,0
1622094381639,621824,,1925,0
1622094381639,621844,,1840,0
1622094381639,621864,,1863,0
1622094381639,621884,,1923,0
1622094381639,621904,,2023,0
1622094381639,621924,,1980,0
1622094381639,621944,,1822,0
1622094381639,621964,,1774,0
1622094381639,621984,,1806,0
1622094381639,622004,,1904,0
1622094381673,622527,,1933,0
1622094381673,622547,,1948,0
1622094381673,622567,,1952,0
1622094381673,622587,,1931,0
1622094381673,622607,,1908,0
1622094381673,622627,,1919,0
1622094381673,622647,,1901,0
1622094381673,622667,,1743,0
1622094381673,622687,,1728,0
1622094381673,622708,,1779,0
1622094381673,622728,,1882,0
1622094381673,622748,,1839,0
1622094381673,622768,,1707,1
1622094381673,622788,,1719,1
1622094381673,622808,,1777,1
1622094381673,622828,,1888,1
1622094381673,622848,,1854,1
1622094381673,622868,,1713,1
1622094381673,622888,,1697,1
1622094381673,622908,,1745,1
1622094381673,622929,,1871,1
1622094381673,622949,,1873,1
1622094381673,622969,,1786,1
1622094381673,622989,,1808,1
1622094381673,623009,,1894,1
1622094381675,623030,,1985,0
1622094381675,623050,,2033,0
1622094381675,623070,,2038,0
1622094381675,623090,,2027,0
1622094381675,623110,,2000,0
1622094381675,623130,,2029,0
1622094381675,623151,,1967,0
1622094381675,623171,,1820,0
1622094381675,623191,,1757,0
1622094381675,623211,,1789,0
1622094381675,623231,,1893,0
1622094381675,623251,,1913,0
1622094381675,623271,,1810,0
1622094381675,623291,,1759,0
1622094381675,623311,,1802,0
1622094381675,623331,,1897,0
1622094381675,623351,,1916,0
1622094381675,623371,,1818,0
1622094381675,623391,,1712,0
1622094381675,623411,,1755,0
1622094381675,623431,,1830,0
1622094381675,623451,,1884,0
1622094381675,623471,,1805,0
1622094381675,623491,,1751,0
1622094381675,623511,,1713,0
1622094381688,623531,,1631,0
1622094381688,623551,,1687,0
1622094381688,623571,,1798,0
1622094381688,623591,,1808,0
1622094381688,623611,,1838,0
1622094381688,623631,,1884,0
1622094381688,623651,,1990,0
1622094381688,623671,,1961,0
1622094381688,623691,,1843,0
1622094381688,623711,,1872,0
1622094381688,623731,,1947,0
1622094381688,623751,,1999,0
1622094381688,623771,,2057,0
1622094381688,623791,,2057,0
1622094381688,623812,,2075,0
1622094381688,623832,,1977,0
1622094381688,623852,,1873,0
1622094381688,623872,,1810,0
1622094381688,623892,,1722,0
1622094381688,623912,,1770,0
1622094381688,623932,,1853,0
1622094381688,623952,,1978,0
1622094381688,623972,,1952,0
1622094381688,623992,,1818,0
1622094381688,624012,,1782,0
1622094381719,624535,,1941,1
1622094381719,624555,,1953,1
1622094381719,624575,,2003,1
1622094381719,624595,,1982,1
1622094381719,624615,,1834,1
1622094381719,624635,,1817,1
1622094381719,624655,,1855,1
1622094381719,624675,,1931,1
1622094381719,624696,,1872,1
1622094381719,624716,,1733,1
1622094381719,624736,,1744,1
1622094381719,624756,,1794,1
1622094381719,624776,,1885,1
1622094381719,624796,,1831,1
1622094381719,624816,,1687,1
1622094381719,624836,,1690,1
1622094381719,624856,,1745,1
1622094381719,624876,,1857,1
1622094381719,624896,,1831,1
1622094381719,624917,,1710,1
1622094381719,624937,,1722,1
1622094381719,624957,,1857,1
1622094381719,624977,,1979,1
1622094381719,624997,,2132,1
1622094381719,625017,,2065,1
1622094381738,625037,,2066,1
1622094381738,625057,,2096,1
1622094381738,625077,,2128,1
1622094381738,625097,,2161,1
1622094381738,625117,,2055,1
1622094381738,625138,,2007,1
1622094381738,625158,,1942,1
1622094381738,625178,,1901,1
1622094381738,625198,,1883,1
1622094381738,625218,,1824,1
1622094381738,625238,,1827,1
1622094381738,625258,,1917,1
1622094381738,625278,,2035,1
1622094381738,625298,,2060,1
1622094381738,625318,,1938,1
1622094381738,625338,,1829,1
1622094381738,625359,,1842,1
1622094381738,625379,,1910,1
1622094381738,625399,,1914,1
1622094381738,625419,,1798,1
1622094381738,625439,,1694,1
1622094381738,625459,,1718,1
1622094381738,625479,,1811,1
1622094381738,625499,,1858,1
1622094381738,625519,,1789,1
1622094381753,625539,,1680,1
1622094381753,625559,,1750,1
1622094381753,625580,,1853,1
1622094381753,625600,,2005,1
1622094381753,625620,,2022,1
1622094381753,625640,,1942,1
1622094381753,625660,,2013,1
1622094381753,625680,,2113,1
1622094381753,625700,,2224,1
1622094381753,625720,,2185,1
1622094381753,625740,,2041,1
1622094381753,625760,,2033,1
1622094381753,625780,,2080,1
1622094381753,625800,,2163,1
1622094381753,625820,,2099,1
1622094381753,625840,,1927,1
1622094381753,625860,,1904,1
1622094381753,625880,,1936,1
1622094381753,625900,,1986,1
1622094381753,625920,,2018,1
1622094381753,625940,,1904,1
1622094381753,625960,,1871,1
1622094381753,625980,,1802,1
1622094381753,626000,,1753,1
1622094381753,626021,,1725,1
1622094381755,626041,,1667,1
1622094381755,626061,,1744,1
1622094381755,626081,,1875,1
1622094381755,626101,,1942,1
1622094381755,626121,,1883,1
1622094381755,626141,,1750,1
1622094381755,626161,,1703,1
1622094381755,626181,,1739,1
1622094381755,626201,,1840,1
1622094381755,626221,,1872,1
1622094381755,626241,,1825,1
1622094381755,626261,,1803,1
1622094381755,626281,,1902,1
1622094381755,626301,,2064,1
1622094381755,626321,,2135,1
1622094381755,626341,,2078,1
1622094381755,626361,,2007,1
1622094381755,626381,,2059,1
1622094381755,626401,,2131,1
1622094381755,626421,,2191,1
1622094381755,626441,,2101,1
1622094381755,626462,,1962,1
1622094381755,626482,,1954,1
1622094381755,626502,,1968,1
1622094381755,626522,,2007,1
1622094381772,626542,,1862,1
1622094381772,626562,,1849,1
1622094381772,626582,,1869,1
1622094381772,626602,,1910,1
1622094381772,626622,,1940,1
1622094381772,626642,,1855,1
1622094381772,626662,,1751,1
1622094381772,626683,,1712,1
1622094381772,626703,,1666,1
1622094381772,626723,,1653,1
1622094381772,626743,,1661,1
1622094381772,626763,,1611,1
1622094381772,626783,,1702,1
1622094381772,626803,,1792,1
1622094381772,626823,,1904,1
1622094381772,626843,,1863,1
1622094381772,626863,,1715,1
1622094381772,626883,,1722,1
1622094381772,626904,,1795,1
1622094381772,626924,,1891,1
1622094381772,626944,,2010,1
1622094381772,626964,,1934,1
1622094381772,626984,,1943,1
1622094381772,627004,,2006,1
1622094381772,627024,,2091,1
1622094382174,627044,,2062,1
1622094382174,627064,,2034,1
1622094382174,627084,,2013,1
1622094382174,627104,,2000,1
1622094382174,627125,,2011,1
1622094382174,627145,,1984,1
1622094382174,627165,,1818,1
1622094382174,627185,,1728,1
1622094382174,627205,,1765,1
1622094382174,627225,,1806,1
1622094382174,627245,,1817,1
1622094382174,627265,,1834,1
1622094382174,627285,,1814,1
1622094382174,627305,,1810,1
1622094382174,627325,,1792,1
1622094382174,627346,,1771,1
1622094382174,627366,,1749,1
1622094382174,627386,,1725,1
1622094382174,627406,,1713,1
1622094382174,627426,,1689,1
1622094382174,627446,,1728,1
1622094382174,627466,,1648,1
1622094382174,627486,,1520,1
1622094382174,627506,,1554,1
1622094382174,627526,,1622,1
1622094382677,627546,,1701,1
1622094382677,627567,,1808,1
1622094382677,627587,,1892,1
1622094382677,627607,,2009,1
1622094382677,627627,,1999,1
1622094382677,627647,,1922,1
1622094382677,627667,,1863,1
1622094382677,627687,,1786,1
1622094382677,627707,,1857,1
1622094382677,627727,,1945,1
1622094382677,627747,,1999,1
1622094382677,627767,,2021,1
1622094382677,627788,,1989,1
1622094382677,627808,,2000,1
1622094382677,627828,,1879,1
1622094382677,627848,,1759,1
1622094382677,627868,,1679,1
1622094382677,627888,,1579,1
1622094382677,627908,,1630,1
1622094382677,627928,,1718,1
1622094382677,627948,,1782,1
1622094382677,627968,,1811,1
1622094382677,627988,,1814,1
1622094382677,628008,,1847,1
1622094382677,628028,,1764,1
1622094383472,628048,,1600,1
1622094383472,628068,,1615,1
1622094383472,628088,,1683,1
1622094383472,628108,,1751,1
1622094383472,628128,,1696,1
1622094383472,628148,,1631,1
1622094383472,628168,,1595,1
1622094383472,628188,,1546,1
1622094383472,628208,,1598,1
1622094383472,628228,,1727,1
1622094383472,628248,,1917,1
1622094383472,628268,,1989,1
1622094383472,628288,,1935,1
1622094383472,628308,,1937,1
1622094383472,628328,,1921,1
1622094383472,628348,,1902,1
1622094383472,628368,,1895,1
1622094383472,628388,,1875,1
1622094383472,628408,,1822,1
1622094383472,628428,,1916,1
1622094383472,628449,,1970,1
1622094383472,628469,,2037,1
1622094383472,628489,,1927,1
1622094383472,628509,,1833,1
1622094383472,628529,,1758,1
1622094383952,628549,,1644,1
1622094383952,628569,,1690,1
1622094383952,628589,,1777,1
1622094383952,628609,,1796,1
1622094383952,628629,,1807,1
1622094383952,628649,,1808,1
1622094383952,628670,,1827,1
1622094383952,628690,,1738,1
1622094383952,628710,,1581,1
1622094383952,628730,,1585,1
1622094383952,628750,,1639,1
1622094383952,628770,,1686,1
1622094383952,628790,,1746,1
1622094383952,628810,,1773,1
1622094383952,628830,,1727,1
1622094383952,628850,,1664,1
1622094383952,628870,,1648,1
1622094383952,628891,,1681,1
1622094383952,628911,,1680,1
1622094383952,628931,,1808,1
1622094383952,628951,,1955,1
1622094383952,628971,,2035,1
1622094383952,628991,,2123,1
1622094383952,629011,,2112,1
1622094383952,629031,,2064,1
1622094384815,629051,,1889,1
1622094384815,629071,,1895,1
1622094384815,629091,,1908,1
1622094384815,629111,,1925,1
1622094384815,629131,,1858,1
1622094384815,629151,,1852,1
1622094384815,629171,,1849,1
1622094384815,629191,,1847,1
1622094384815,629211,,1849,1
1622094384815,629231,,1814,1
1622094384815,629251,,1735,1
1622094384815,629271,,1664,1
1622094384815,629291,,1631,1
1622094384815,629311,,1597,1
1622094384815,629332,,1597,1
1622094384815,629352,,1699,1
1622094384815,629372,,1785,1
1622094384815,629392,,1864,1
1622094384815,629412,,1887,1
1622094384815,629432,,1814,1
1622094384815,629452,,1721,1
1622094384815,629472,,1638,1
1622094384815,629492,,1607,1
1622094384815,629512,,1621,1
1622094384815,629532,,1621,1
1622094384835,629552,,1772,1
1622094384835,629572,,1935,1
1622094384835,629592,,2032,1
1622094384835,629612,,2089,1
1622094384835,629632,,2158,1
1622094384835,629652,,2102,1
1622094384835,629672,,1991,1
1622094384835,629692,,1906,1
1622094384835,629712,,1859,1
1622094384835,629732,,1779,1
1622094384835,629752,,1835,1
1622094384835,629773,,1909,1
1622094384835,629793,,1966,1
1622094384835,629813,,2032,1
1622094384835,629833,,1934,1
1622094384835,629853,,1857,1
1622094384835,629873,,1776,1
1622094384835,629893,,1719,1
1622094384835,629913,,1692,1
1622094384835,629933,,1616,1
1622094384835,629953,,1655,1
1622094384835,629973,,1758,1
1622094384835,629994,,1827,1
1622094384835,630014,,1842,1
1622094384835,630034,,1791,1
1622094385947,630054,,1807,1
1622094385947,630074,,1782,1
1622094385947,630094,,1759,1
1622094385947,630114,,1740,1
1622094385947,630134,,1595,1
1622094385947,630154,,1520,1
1622094385947,630174,,1586,1
1622094385947,630194,,1684,1
1622094385947,630215,,1799,1
1622094385947,630235,,1913,1
1622094385947,630255,,1962,1
1622094385947,630275,,1926,1
1622094385947,630295,,1885,1
1622094385947,630315,,1863,1
1622094385947,630335,,1838,1
1622094385947,630355,,1837,1
1622094385947,630375,,1936,1
1622094385947,630395,,2022,0
1622094385947,630415,,2061,0
1622094385947,630436,,2099,0
1622094385947,630456,,2021,0
1622094385947,630476,,1904,0
1622094385947,630496,,1795,0
1622094385947,630516,,1724,0
1622094385947,630536,,1689,0
1622094386029,630556,,1636,0
1622094386029,630576,,1727,0
1622094386029,630596,,1819,0
1622094386029,630616,,1885,0
1622094386029,630636,,1927,0
1622094386029,630657,,1838,0
1622094386029,630677,,1761,0
1622094386029,630697,,1685,0
1622094386029,630717,,1638,0
1622094386029,630737,,1616,0
1622094386029,630757,,1574,0
1622094386029,630777,,1643,0
1622094386029,630797,,1751,0
1622094386029,630817,,1815,0
1622094386029,630837,,1905,0
1622094386029,630857,,1842,0
1622094386029,630878,,1808,0
1622094386029,630898,,1778,0
1622094386029,630918,,1789,0
1622094386029,630938,,1815,0
1622094386029,630958,,1795,0
1622094386029,630978,,1872,0
1622094386029,630998,,1975,0
1622094386029,631018,,2103,0
1622094386029,631038,,2076,0
1622094386190,631059,,1922,0
1622094386190,631079,,1910,0
1622094386190,631100,,1918,0
1622094386190,631120,,1911,0
1622094386190,631140,,1894,0
1622094386190,631160,,1857,0
1622094386190,631180,,1814,0
1622094386190,631200,,1839,0
1622094386190,631220,,1790,0
1622094386190,631240,,1697,0
1622094386190,631260,,1579,0
1622094386190,631280,,1571,0
1622094386190,631300,,1647,0
1622094386190,631320,,1741,0
1622094386190,631340,,1797,0
1622094386190,631360,,1824,0
1622094386190,631380,,1865,0
1622094386190,631400,,1775,1
1622094386190,631420,,1665,1
1622094386190,631440,,1597,1
1622094386190,631460,,1552,1
1622094386190,631480,,1502,1
1622094386190,631500,,1595,1
1622094386190,631520,,1714,1
1622094386190,631541,,1838,1
1622094386691,631561,,1925,1
1622094386691,631581,,1974,1
1622094386691,631601,,2032,1
1622094386691,631621,,2011,1
1622094386691,631641,,1905,1
1622094386691,631661,,1807,1
1622094386691,631681,,1683,1
1622094386691,631701,,1739,1
1622094386691,631721,,1830,1
1622094386691,631741,,1957,1
1622094386691,631762,,1921,1
1622094386691,631782,,1788,1
1622094386691,631802,,1773,1
1622094386691,631822,,1811,1
1622094386691,631842,,1835,1
1622094386691,631862,,1834,1
1622094386691,631882,,1813,1
1622094386691,631902,,1803,1
1622094386691,631922,,1789,1
1622094386691,631942,,1789,1
1622094386691,631962,,1797,1
1622094386691,631983,,1632,1
1622094386691,632003,,1599,1
1622094386691,632023,,1643,1
1622094386691,632043,,1680,1
1622094387193,632063,,1699,1
1622094387193,632083,,1709,1
1622094387193,632103,,1759,1
1622094387193,632123,,1755,1
1622094387193,632143,,1665,1
1622094387193,632163,,1591,1
1622094387193,632183,,1520,1
1622094387193,632203,,1569,1
1622094387193,632223,,1694,1
1622094387193,632243,,1887,1
1622094387193,632263,,1949,1
1622094387193,632283,,1882,1
1622094387193,632303,,1823,1
1622094387193,632323,,1863,1
1622094387193,632343,,1901,1
1622094387193,632363,,1923,1
1622094387193,632383,,1925,1
1622094387193,632403,,1962,1
1622094387193,632424,,1894,1
1622094387193,632444,,1776,1
1622094387193,632464,,1680,1
1622094387193,632484,,1621,1
1622094387193,632504,,1569,1
1622094387193,632524,,1659,1
1622094387193,632544,,1755,1
1622094387758,632564,,1820,1
1622094387758,632584,,1842,1
1622094387758,632604,,1839,1
1622094387758,632624,,1872,1
1622094387758,632645,,1775,1
1622094387758,632665,,1669,1
1622094387758,632685,,1597,1
1622094387758,632705,,1499,1
1622094387758,632725,,1569,1
1622094387758,632745,,1673,1
1622094387758,632765,,1755,1
1622094387758,632785,,1793,1
1622094387758,632805,,1797,1
1622094387758,632825,,1776,1
1622094387758,632845,,1759,1
1622094387758,632866,,1776,1
1622094387758,632886,,1803,1
1622094387758,632906,,1877,1
1622094387758,632926,,1891,1
1622094387758,632946,,1826,1
1622094387758,632966,,1775,1
1622094387758,632986,,1746,1
1622094387758,633006,,1695,1
1622094387758,633026,,1764,1
1622094387758,633046,,1868,1
1622094388298,633066,,1936,1
1622094388298,633087,,1963,1
1622094388298,633107,,1949,1
1622094388298,633127,,1908,1
1622094388298,633147,,1855,1
1622094388298,633167,,1805,1
1622094388298,633187,,1774,1
1622094388298,633207,,1744,1
1622094388298,633227,,1782,1
1622094388298,633247,,1747,1
1622094388298,633267,,1663,1
1622094388298,633287,,1609,1
1622094388298,633308,,1527,1
1622094388298,633328,,1557,1
1622094388298,633348,,1664,1
1622094388298,633368,,1763,1
1622094388298,633388,,1823,1
1622094388298,633408,,1851,1
1622094388298,633428,,1839,1
1622094388298,633448,,1808,1
1622094388298,633468,,1776,1
1622094388298,633488,,1770,1
1622094388298,633508,,1781,1
1622094388298,633529,,1824,1
1622094388298,633549,,1909,1
1622094389093,633569,,1887,1
1622094389093,633589,,1891,1
1622094389093,633609,,1918,1
1622094389093,633629,,1921,1
1622094389093,633649,,1910,1
1622094389093,633669,,1914,1
1622094389093,633689,,1915,1
1622094389093,633709,,1911,1
1622094389093,633729,,1956,1
1622094389093,633750,,1890,1
1622094389093,633770,,1796,1
1622094389093,633790,,1730,1
1622094389093,633810,,1712,1
1622094389093,633830,,1653,1
1622094389093,633850,,1759,1
1622094389093,633870,,1845,1
1622094389093,633890,,1904,1
1622094389093,633910,,1919,1
1622094389093,633930,,1903,0
1622094389093,633950,,1861,0
1622094389093,633970,,1832,0
1622094389093,633990,,1798,0
1622094389093,634010,,1767,0
1622094389093,634030,,1789,0
1622094389093,634050,,1744,0
1622094389429,634070,,1602,0
1622094389429,634090,,1618,0
1622094389429,634110,,1716,0
1622094389429,634130,,1759,0
1622094389429,634150,,1808,0
1622094389429,634170,,1895,0
1622094389429,634191,,1995,0
1622094389429,634211,,2059,0
1622094389429,634231,,2089,0
1622094389429,634251,,2091,0
1622094389429,634271,,2075,0
1622094389429,634291,,2058,0
1622094389429,634311,,2026,0
1622094389429,634331,,2020,0
1622094389429,634351,,1995,0
1622094389429,634371,,1893,0
1622094389429,634391,,1814,0
1622094389429,634412,,1773,0
1622094389429,634432,,1735,0
1622094389429,634452,,1740,0
1622094389429,634472,,1830,0
1622094389429,634492,,1919,0
1622094389429,634512,,1968,0
1622094389429,634532,,1983,0
1622094389429,634552,,1968,0
1622094389802,634573,,1919,0
1622094389802,634593,,1879,0
1622094389802,634613,,1840,0
1622094389802,634634,,1803,0
1622094389802,634654,,1776,0
1622094389802,634674,,1744,0
1622094389802,634694,,1779,0
1622094389802,634714,,1733,0
1622094389802,634734,,1663,0
1622094389802,634754,,1569,0
1622094389802,634774,,1655,0
1622094389802,634794,,1793,0
1622094389802,634814,,1933,0
1622094389802,634834,,2032,0
1622094389802,634854,,2106,0
1622094389802,634874,,2150,0
1622094389802,634894,,2161,0
1622094389802,634914,,2157,0
1622094389802,634934,,2137,0
1622094389802,634954,,2106,0
1622094389802,634974,,2076,0
1622094389802,634994,,2032,0
1622094389802,635014,,1994,0
1622094389802,635034,,1942,0
1622094389802,635054,,1939,0
1622094390457,635074,,1854,0
1622094390457,635094,,1821,0
1622094390457,635114,,1843,0
1622094390457,635134,,1884,0
1622094390457,635154,,1795,0
1622094390457,635174,,1776,0
1622094390457,635194,,1743,0
1622094390457,635214,,1722,0
1622094390457,635234,,1710,0
1622094390457,635254,,1680,0
1622094390457,635274,,1697,0
1622094390457,635295,,1787,0
1622094390457,635315,,1904,0
1622094390457,635335,,1907,0
1622094390457,635355,,1790,0
1622094390457,635375,,1717,0
1622094390457,635395,,1771,0
1622094390457,635415,,1849,0
1622094390457,635435,,1922,0
1622094390457,635455,,1993,0
1622094390457,635476,,2062,0
1622094390457,635496,,2001,0
1622094390457,635517,,1936,0
1622094390457,635537,,1902,0
1622094390457,635557,,1865,0
1622094390708,635577,,1855,0
1622094390708,635597,,1982,0
1622094390708,635617,,2078,0
1622094390708,635637,,2113,0
1622094390708,635657,,2086,0
1622094390708,635677,,2015,0
1622094390708,635697,,1947,0
1622094390708,635717,,1887,0
1622094390708,635738,,1834,0
1622094390708,635758,,1802,0
1622094390708,635778,,1783,0
1622094390708,635798,,1773,0
1622094390708,635818,,1775,0
1622094390708,635838,,1773,0
1622094390708,635858,,1784,0
1622094390708,635878,,1806,0
1622094390708,635898,,1743,0
1622094390708,635918,,1649,0
1622094390708,635938,,1601,0
1622094390708,635959,,1589,0
1622094390708,635979,,1548,0
1622094390708,635999,,1655,0
1622094390708,636019,,1778,0
1622094390708,636039,,1923,0
1622094390708,636059,,2000,0
1622094391276,636079,,2029,0
1622094391276,636099,,2021,0
1622094391276,636119,,1999,0
1622094391276,636139,,1981,0
1622094391276,636159,,2017,0
1622094391276,636180,,1956,0
1622094391276,636200,,1889,0
1622094391276,636220,,1810,0
1622094391276,636240,,1758,0
1622094391276,636260,,1731,0
1622094391276,636280,,1678,0
1622094391276,636300,,1722,0
1622094391276,636320,,1818,0
1622094391276,636340,,1892,0
1622094391276,636360,,1925,0
1622094391276,636380,,1922,0
1622094391276,636401,,1883,0
1622094391276,636421,,1840,0
1622094391276,636441,,1797,0
1622094391276,636461,,1760,0
1622094391276,636481,,1729,0
1622094391276,636501,,1706,0
1622094391276,636521,,1739,0
1622094391276,636541,,1649,0
1622094391276,636561,,1568,0
1622094391716,636582,,1469,0
1622094391716,636602,,1554,0
1622094391716,636623,,1737,0
1622094391716,636643,,1856,0
1622094391716,636663,,1874,0
1622094391716,636683,,1869,0
1622094391716,636703,,1834,0
1622094391716,636723,,1926,0
1622094391716,636743,,2000,0
1622094391716,636763,,2032,0
1622094391716,636783,,2045,0
1622094391716,636803,,2032,0
1622094391716,636823,,1997,0
1622094391716,636844,,1946,0
1622094391716,636864,,1899,0
1622094391716,636884,,1853,0
1622094391716,636904,,1817,0
1622094391716,636924,,1823,0
1622094391716,636944,,1733,0
1622094391716,636964,,1649,0
1622094391716,636984,,1614,0
1622094391716,637004,,1552,0
1622094391716,637024,,1646,0
1622094391716,637044,,1737,0
1622094391716,637065,,1822,0
1622094392303,637086,,1866,0
1622094392303,637106,,1863,0
1622094392303,637126,,1866,0
1622094392303,637146,,1833,0
1622094392303,637166,,1716,0
1622094392303,637186,,1618,0
1622094392303,637206,,1503,0
1622094392303,637226,,1577,0
1622094392303,637246,,1707,0
1622094392303,637266,,1830,0
1622094392303,637287,,1947,0
1622094392303,637307,,2005,0
1622094392303,637327,,2078,0
1622094392303,637347,,2071,0
1622094392303,637367,,1979,0
1622094392303,637387,,1899,0
1622094392303,637407,,1795,0
1622094392303,637427,,1812,0
1622094392303,637447,,1888,0
1622094392303,637467,,1950,0
1622094392303,637487,,1981,0
1622094392303,637508,,1967,0
1622094392303,637528,,1929,0
1622094392303,637548,,1882,0
1622094392303,637568,,1859,0
1622094393129,637588,,1791,0
1622094393129,637608,,1760,0
1622094393129,637628,,1776,0
1622094393129,637648,,1781,0
1622094393129,637668,,1701,0
1622094393129,637688,,1630,0
1622094393129,637708,,1566,0
1622094393129,637729,,1558,0
1622094393129,637749,,1654,1
1622094393129,637769,,1783,1
1622094393129,637789,,1825,1
1622094393129,637809,,1759,1
1622094393129,637829,,1663,1
1622094393129,637849,,1741,1
1622094393129,637869,,1837,1
1622094393129,637889,,1914,1
1622094393129,637909,,1967,1
1622094393129,637929,,2047,1
1622094393129,637950,,2000,1
1622094393129,637970,,1912,1
1622094393129,637990,,1858,1
1622094393129,638010,,1833,1
1622094393129,638030,,1783,1
1622094393129,638050,,1853,1
1622094393129,638070,,1917,1
1622094393431,638090,,1982,1
1622094393431,638110,,1985,1
1622094393431,638130,,2000,1
1622094393431,638150,,1943,1
1622094393431,638171,,1808,1
1622094393431,638191,,1703,1
1622094393431,638211,,1648,1
1622094393431,638231,,1565,1
1622094393431,638251,,1625,1
1622094393431,638271,,1735,1
1622094393431,638291,,1814,1
1622094393431,638311,,1859,1
1622094393431,638331,,1909,1
1622094393431,638351,,1878,1
1622094393431,638371,,1770,1
1622094393431,638392,,1665,1
1622094393431,638412,,1610,1
1622094393431,638432,,1535,1
1622094393431,638452,,1611,1
1622094393431,638472,,1744,1
1622094393431,638492,,1871,1
1622094393431,638512,,1958,1
1622094393431,638532,,2007,1
1622094393431,638552,,2075,1
1622094393431,638572,,2000,1
1622094393905,638592,,1850,1
1622094393905,638613,,1867,1
1622094393905,638633,,1934,1
1622094393905,638653,,1977,1
1622094393905,638673,,1994,1
1622094393905,638693,,1963,1
1622094393905,638713,,1907,1
1622094393905,638733,,1866,1
1622094393905,638753,,1825,1
1622094393905,638773,,1858,1
1622094393905,638793,,1763,1
1622094393905,638813,,1682,1
1622094393905,638834,,1615,1
1622094393905,638854,,1593,1
1622094393905,638874,,1700,1
1622094393905,638894,,1791,1
1622094393905,638914,,1861,1
1622094393905,638934,,1876,1
1622094393905,638954,,1863,1
1622094393905,638974,,1833,1
1622094393905,638994,,1791,1
1622094393905,639014,,1792,1
1622094393905,639034,,1777,1
1622094393905,639055,,1648,1
1622094393905,639075,,1682,1
1622094394250,639096,,1776,1
1622094394250,639116,,1869,1
1622094394250,639136,,1934,1
1622094394250,639156,,2020,1
1622094394250,639176,,2015,1
1622094394250,639196,,1938,1
1622094394250,639216,,1863,1
1622094394250,639236,,1826,1
1622094394250,639256,,1761,1
1622094394250,639277,,1836,1
1622094394250,639297,,1933,1
1622094394250,639317,,1991,1
1622094394250,639337,,2003,1
1622094394250,639357,,1979,1
1622094394250,639377,,1933,1
1622094394250,639397,,1883,1
1622094394250,639417,,1830,1
1622094394250,639437,,1786,1
1622094394250,639457,,1746,1
1622094394250,639477,,1721,1
1622094394250,639498,,1710,1
1622094394250,639518,,1702,1
1622094394250,639538,,1709,1
1622094394250,639558,,1712,1
1622094394250,639578,,1712,1
1622094394989,639598,,1713,1
1622094394989,639618,,1718,1
1622094394989,639638,,1776,1
1622094394989,639658,,1781,1
1622094394989,639678,,1793,1
1622094394989,639698,,1779,1
1622094394989,639719,,1787,1
1622094394989,639739,,1823,1
1622094394989,639759,,1831,1
1622094394989,639779,,1883,1
1622094394989,639799,,1999,1
1622094394989,639819,,2087,1
1622094394989,639839,,2130,1
1622094394989,639859,,2127,1
1622094394989,639879,,2145,1
1622094394989,639899,,2017,1
1622094394989,639919,,1853,1
1622094394989,639940,,1735,1
1622094394989,639960,,1660,1
1622094394989,639980,,1623,1
1622094394989,640000,,1710,1
1622094394989,640020,,1821,1
1622094394989,640040,,1904,1
1622094394989,640060,,1840,1
1622094394989,640080,,1721,1
1622094397409,640101,,1731,1
1622094397409,640121,,1775,1
1622094397409,640141,,1799,1
1622094397409,640162,,1789,1
1622094397409,640182,,1763,1
1622094397409,640202,,1734,1
1622094397409,640222,,1777,1
1622094397409,640242,,1739,1
1622094397409,640262,,1700,1
1622094397409,640282,,1650,1
1622094397409,640302,,1744,1
1622094397409,640322,,1876,1
1622094397409,640342,,2019,1
1622094397409,640362,,2006,1
1622094397409,640383,,1901,1
1622094397409,640403,,1918,1
1622094397409,640423,,1968,1
1622094397409,640443,,2062,1
1622094397409,640463,,1986,1
1622094397409,640483,,1825,1
1622094397409,640503,,1799,1
1622094397409,640523,,1827,1
1622094397409,640543,,1919,1
1622094397409,640563,,1870,1
1622094397409,640583,,1722,1
1622094399667,640603,,1706,1
1622094399667,640623,,1744,1
1622094399667,640643,,1820,1
1622094399667,640663,,1856,1
1622094399667,640683,,1726,1
1622094399667,640703,,1655,1
1622094399667,640723,,1680,1
1622094399667,640743,,1786,1
1622094399667,640763,,1787,1
1622094399667,640783,,1661,1
1622094399667,640803,,1610,1
1622094399667,640824,,1670,1
1622094399667,640844,,1807,1
1622094399667,640864,,1862,1
1622094399667,640884,,1811,1
1622094399667,640904,,1785,1
1622094399667,640924,,1851,1
1622094399667,640944,,1967,1
1622094399667,640964,,2000,1
1622094399667,640984,,1907,1
1622094399667,641004,,1819,1
1622094399667,641024,,1845,1
1622094399667,641045,,1952,1
1622094399667,641065,,1975,1
1622094399667,641085,,1872,1
1622094401317,641105,,1743,1
1622094401317,641125,,1753,1
1622094401317,641145,,1776,1
1622094401317,641165,,1849,1
1622094401317,641185,,1791,1
1622094401317,641205,,1654,1
1622094401317,641225,,1680,1
1622094401317,641245,,1728,1
1622094401317,641266,,1808,1
1622094401317,641286,,1751,1
1622094401317,641306,,1632,1
1622094401317,641326,,1664,1
1622094401317,641346,,1725,1
1622094401317,641366,,1824,1
1622094401317,641386,,1776,1
1622094401317,641406,,1648,1
1622094401317,641426,,1665,1
1622094401317,641446,,1747,1
1622094401317,641466,,1887,1
1622094401317,641487,,1885,1
1622094401317,641507,,1779,1
1622094401317,641527,,1801,1
1622094401317,641547,,1856,1
1622094401317,641567,,1956,1
1622094401317,641587,,1920,1
1622094401615,641607,,1776,1
1622094401615,641627,,1791,1
1622094401615,641647,,1859,1
1622094401615,641667,,1878,1
1622094401615,641687,,1808,1
1622094401615,641708,,1667,1
1622094401615,641728,,1659,1
1622094401615,641748,,1732,1
1622094401615,641768,,1846,1
1622094401615,641788,,1840,1
1622094401615,641808,,1728,1
1622094401615,641828,,1655,1
1622094401615,641848,,1697,1
1622094401615,641868,,1806,1
1622094401615,641888,,1815,1
1622094401615,641908,,1729,1
1622094401615,641928,,1644,1
1622094401615,641948,,1669,1
1622094401615,641968,,1766,1
1622094401615,641988,,1808,1
1622094401615,642008,,1744,1
1622094401615,642028,,1708,1
1622094401615,642048,,1785,1
1622094401615,642068,,1871,1
1622094401615,642088,,1923,1
1622094402034,642108,,1948,1
1622094402034,642128,,1947,1
1622094402034,642149,,1925,1
1622094402034,642169,,1891,1
1622094402034,642189,,1859,1
1622094402034,642209,,1825,1
1622094402034,642229,,1804,1
1622094402034,642249,,1825,1
1622094402034,642269,,1719,1
1622094402034,642289,,1643,1
1622094402034,642309,,1599,1
1622094402034,642329,,1599,1
1622094402034,642349,,1648,1
1622094402034,642370,,1681,1
1622094402034,642390,,1709,1
1622094402034,642410,,1718,1
1622094402034,642430,,1664,1
1622094402034,642450,,1723,1
1622094402034,642470,,1799,1
1622094402034,642490,,1903,0
1622094402034,642510,,1843,0
1622094402034,642530,,1693,0
1622094402034,642550,,1673,0
1622094402034,642570,,1723,0
1622094402034,642591,,1857,0
1622094402373,642611,,1807,0
1622094402373,642631,,1851,0
1622094402373,642651,,1929,0
1622094402373,642671,,1983,0
1622094402373,642691,,1915,0
1622094402373,642711,,1840,0
1622094402373,642731,,1750,0
1622094402373,642751,,1754,0
1622094402373,642771,,1835,0
1622094402373,642791,,1943,0
1622094402373,642811,,1924,0
1622094402373,642831,,1791,0
1622094402373,642851,,1729,0
1622094402373,642871,,1759,0
1622094402373,642891,,1861,0
1622094402373,642911,,1862,0
1622094402373,642931,,1762,0
1622094402373,642951,,1680,0
1622094402373,642971,,1726,0
1622094402373,642991,,1840,0
1622094402373,643011,,1866,0
1622094402373,643032,,1763,0
1622094402373,643052,,1673,0
1622094402373,643072,,1674,0
1622094402373,643092,,1763,0
1622094402622,643112,,1805,0
1622094402622,643132,,1823,0
1622094402622,643152,,1841,0
1622094402622,643172,,1861,0
1622094402622,643192,,1882,0
1622094402622,643212,,1904,0
1622094402622,643232,,1915,0
1622094402622,643253,,1907,0
1622094402622,643273,,1957,0
1622094402622,643293,,1901,0
1622094402622,643313,,1829,0
1622094402622,643333,,1797,0
1622094402622,643353,,1721,0
1622094402622,643373,,1788,0
1622094402622,643393,,1879,0
1622094402622,643413,,1995,0
1622094402622,643433,,1936,0
1622094402622,643453,,1782,0
1622094402622,643474,,1765,0
1622094402622,643494,,1805,0
1622094402622,643514,,1894,0
1622094402622,643534,,1841,0
1622094402622,643554,,1699,0
1622094402622,643574,,1680,0
1622094402622,643594,,1725,0
1622094404828,646623,,1665,0
1622094404828,646643,,1792,0
1622094404828,646663,,1917,1
1622094404828,646683,,2065,0
1622094404828,646703,,2060,0
1622094404828,646723,,1941,0
1622094404828,646743,,1904,0
1622094404828,646763,,1862,0
1622094404828,646784,,1825,0
1622094404828,646804,,1811,0
1622094404828,646824,,1775,0
1622094404828,646844,,1782,0
1622094404828,646864,,1858,0
1622094404828,646884,,1961,0
1622094404828,646904,,1971,0
1622094404828,646924,,1850,0
1622094404828,646944,,1744,0
1622094404828,646964,,1763,0
1622094404828,646984,,1839,0
1622094404828,647005,,1870,0
1622094404828,647025,,1781,0
1622094404828,647045,,1665,0
1622094404828,647065,,1690,0
1622094404828,647085,,1728,0
1622094404828,647105,,1811,0
1622094405322,647125,,1762,0
1622094405322,647145,,1767,0
1622094405322,647165,,1814,0
1622094405322,647185,,1846,0
1622094405322,647205,,1806,0
1622094405322,647226,,1782,0
1622094405322,647246,,1735,0
1622094405322,647266,,1835,0
1622094405322,647286,,1938,0
1622094405322,647306,,2065,0
1622094405322,647326,,2032,0
1622094405322,647346,,1902,0
1622094405322,647366,,1903,0
1622094405322,647386,,1933,0
1622094405322,647406,,1986,0
1622094405322,647426,,1905,0
1622094405322,647447,,1743,0
1622094405322,647467,,1730,0
1622094405322,647487,,1777,0
1622094405322,647507,,1885,0
1622094405322,647527,,1840,0
1622094405322,647547,,1717,0
1622094405322,647567,,1705,0
1622094405322,647587,,1751,0
1622094405322,647607,,1859,0
1622094405998,647627,,1765,0
1622094405998,647647,,1766,0
1622094405998,647668,,1778,0
1622094405998,647688,,1830,0
1622094405998,647708,,1745,0
1622094405998,647728,,1680,0
1622094405998,647748,,1616,0
1622094405998,647768,,1680,0
1622094405998,647788,,1835,0
1622094405998,647808,,2012,0
1622094405998,647828,,2078,0
1622094405998,647848,,1998,0
1622094405998,647868,,1948,0
1622094405998,647889,,1984,0
1622094405998,647909,,2011,0
1622094405998,647929,,2015,0
1622094405998,647949,,1991,0
1622094405998,647969,,1957,0
1622094405998,647989,,1910,0
1622094405998,648009,,1879,0
1622094405998,648029,,1849,0
1622094405998,648049,,1824,0
1622094405998,648069,,1799,0
1622094405998,648089,,1798,0
1622094405998,648110,,1777,0
1622094406731,648130,,1756,0
1622094406731,648150,,1744,0
1622094406731,648170,,1744,0
1622094406731,648190,,1745,0
1622094406731,648210,,1767,0
1622094406731,648230,,1793,0
1622094406731,648250,,1712,0
1622094406731,648270,,1648,0
1622094406731,648290,,1667,0
1622094406731,648310,,1719,0
1622094406731,648331,,1806,0
1622094406731,648351,,1878,0
1622094406731,648371,,1883,0
1622094406731,648391,,1989,0
1622094406731,648411,,2099,0
1622094406731,648431,,2204,0
1622094406731,648451,,2138,0
1622094406731,648471,,1967,0
1622094406731,648491,,1936,0
1622094406731,648511,,1943,0
1622094406731,648531,,2005,0
1622094406731,648552,,1923,0
1622094406731,648572,,1760,0
1622094406731,648592,,1746,0
1622094406731,648612,,1790,0
1622094408419,649135,,1760,0
1622094408419,649155,,1822,0
1622094408419,649175,,1911,0
1622094408419,649195,,1970,0
1622094408419,649216,,1895,0
1622094408419,649236,,1792,0
1622094408419,649256,,1712,0
1622094408419,649276,,1648,0
1622094408419,649296,,1594,0
1622094408419,649316,,1663,0
1622094408419,649336,,1776,0
1622094408419,649356,,1872,0
1622094408419,649376,,1860,0
1622094408419,649396,,1781,0
1622094408419,649416,,1855,0
1622094408419,649437,,1963,0
1622094408419,649457,,2081,0
1622094408419,649477,,2031,0
1622094408419,649497,,1902,0
1622094408419,649517,,1902,0
1622094408419,649537,,1919,0
1622094408419,649557,,1954,0
1622094408419,649577,,1956,0
1622094408419,649597,,1931,0
1622094408419,649617,,1905,0
1622094408629,649638,,1865,0
1622094408629,649659,,1814,0
1622094408629,649679,,1827,0
1622094408629,649699,,1781,0
1622094408629,649719,,1711,0
1622094408629,649739,,1647,0
1622094408629,649759,,1610,0
1622094408629,649779,,1601,0
1622094408629,649799,,1600,0
1622094408629,649819,,1666,0
1622094408629,649839,,1699,0
1622094408629,649859,,1714,0
1622094408629,649880,,1743,0
1622094408629,649900,,1763,0
1622094408629,649920,,1856,0
1622094408629,649940,,1904,1
1622094408629,649960,,1923,1
1622094408629,649980,,1945,1
1622094408629,650000,,1927,1
1622094408629,650020,,1947,1
1622094408629,650040,,2019,1
1622094408629,650060,,2123,1
1622094408629,650080,,2105,1
1622094408629,650101,,1936,1
1622094408629,650121,,1839,1
1622094409925,651145,,1867,1
1622094409925,651165,,1879,1
1622094409925,651185,,1938,1
1622094409925,651206,,1938,1
1622094409925,651226,,1821,1
1622094409925,651246,,1745,1
1622094409925,651266,,1779,1
1622094409925,651286,,1868,1
1622094409925,651306,,1873,1
1622094409925,651326,,1790,1
1622094409925,651346,,1679,1
1622094409925,651366,,1707,1
1622094409925,651386,,1792,1
1622094409925,651406,,1830,1
1622094409925,651427,,1765,1
1622094409925,651447,,1664,1
1622094409925,651467,,1731,1
1622094409925,651487,,1826,1
1622094409925,651507,,1909,1
1622094409925,651527,,1969,1
1622094409925,651547,,2070,1
1622094409925,651567,,2041,1
1622094409925,651587,,1967,1
1622094409925,651607,,1907,1
1622094409925,651627,,1877,1
1622094410297,651647,,1809,1
1622094410297,651667,,1869,1
1622094410297,651687,,1950,1
1622094410297,651707,,2007,1
1622094410297,651727,,1931,1
1622094410297,651747,,1771,1
1622094410297,651767,,1748,1
1622094410297,651787,,1790,1
1622094410297,651807,,1875,1
1622094410297,651827,,1819,1
1622094410297,651847,,1663,1
1622094410297,651868,,1648,1
1622094410297,651888,,1687,1
1622094410297,651908,,1808,1
1622094410297,651928,,1779,1
1622094410297,651948,,1664,1
1622094410297,651968,,1669,1
1622094410297,651988,,1767,1
1622094410297,652008,,1941,1
1622094410297,652028,,1989,1
1622094410297,652048,,1919,1
1622094410297,652068,,1925,1
1622094410297,652089,,2004,1
1622094410297,652109,,2129,1
1622094410297,652129,,2150,1
1622094410592,652149,,2029,1
1622094410592,652169,,2032,1
1622094410592,652189,,2076,1
1622094410592,652209,,2090,1
1622094410592,652229,,1973,1
1622094410592,652249,,1836,1
1622094410592,652269,,1738,1
1622094410592,652289,,1772,1
1622094410592,652310,,1856,1
1622094410592,652330,,1902,1
1622094410592,652350,,1826,1
1622094410592,652370,,1715,1
1622094410592,652390,,1747,1
1622094410592,652410,,1788,1
1622094410592,652430,,1824,1
1622094410592,652450,,1899,1
1622094410592,652470,,1865,1
1622094410592,652490,,1792,1
1622094410592,652510,,1745,1
1622094410592,652531,,1747,1
1622094410592,652551,,1797,1
1622094410592,652571,,1884,1
1622094410592,652591,,1983,1
1622094410592,652611,,2059,1
1622094410592,652631,,2091,1
1622094410647,652651,,2035,1
1622094410647,652671,,2103,1
1622094410647,652691,,2176,1
1622094410647,652711,,2187,1
1622094410647,652731,,2091,1
1622094410647,652752,,1957,1
1622094410647,652772,,1850,1
1622094410647,652792,,1822,1
1622094410647,652812,,1787,1
1622094410647,652832,,1764,1
1622094410647,652852,,1754,1
1622094410647,652872,,1747,1
1622094410647,652892,,1791,1
1622094410647,652912,,1795,1
1622094410647,652932,,1783,1
1622094410647,652952,,1767,1
1622094410647,652973,,1750,1
1622094410647,652993,,1811,1
1622094410647,653013,,1867,1
1622094410647,653033,,1920,1
1622094410647,653053,,1983,1
1622094410647,653073,,2000,1
1622094410647,653093,,2105,1
1622094410647,653113,,2134,1
1622094410647,653133,,2133,1
1622094410840,653153,,2059,1
1622094410840,653173,,2091,1
1622094410840,653193,,2128,1
1622094410840,653213,,2128,1
1622094410840,653233,,2106,1
1622094410840,653253,,2062,1
1622094410840,653273,,1994,1
1622094410840,653293,,1999,1
1622094410840,653313,,1884,1
1622094410840,653333,,1776,1
1622094410840,653353,,1696,1
1622094410840,653373,,1645,1
1622094410840,653393,,1650,1
1622094410840,653414,,1681,1
1622094410840,653434,,1693,1
1622094410840,653454,,1712,1
1622094410840,653474,,1731,1
1622094410840,653494,,1781,1
1622094410840,653514,,1852,1
1622094410840,653534,,1914,1
1622094410840,653554,,1981,1
1622094410840,653574,,2061,1
1622094410840,653594,,2117,1
1622094410840,653614,,2177,1
1622094410840,653635,,2183,1
1622094410941,653655,,2098,1
1622094410941,653675,,2132,1
1622094410941,653695,,2151,1
1622094410941,653715,,2128,1
1622094410941,653735,,2077,1
1622094410941,653755,,2065,1
1622094410941,653775,,1939,1
1622094410941,653795,,1797,1
1622094410941,653815,,1723,1
1622094410941,653835,,1682,1
1622094410941,653856,,1669,1
1622094410941,653876,,1675,1
1622094410941,653896,,1670,1
1622094410941,653916,,1726,1
1622094410941,653936,,1744,1
1622094410941,653956,,1744,1
1622094410941,653976,,1751,1
1622094410941,653996,,1764,1
1622094410941,654016,,1868,1
1622094410941,654036,,1949,1
1622094410941,654056,,2015,1
1622094410941,654077,,2070,1
1622094410941,654097,,2089,1
1622094410941,654117,,2137,1
1622094410941,654137,,2147,1
1622094410957,654157,,2070,1
1622094410957,654177,,2122,1
1622094410957,654197,,2160,1
1622094410957,654217,,2202,1
1622094410957,654237,,2096,1
1622094410957,654257,,1965,1
1622094410957,654277,,1853,1
1622094410957,654298,,1733,1
1622094410957,654318,,1741,1
1622094410957,654338,,1731,1
1622094410957,654358,,1734,1
1622094410957,654378,,1744,1
1622094410957,654398,,1743,1
1622094410957,654418,,1767,1
1622094410957,654438,,1786,1
1622094410957,654458,,1776,1
1622094410957,654478,,1779,1
1622094410957,654498,,1819,1
1622094410957,654519,,1907,1
1622094410957,654539,,2007,1
1622094410957,654559,,2103,1
1622094410957,654579,,2180,1
1622094410957,654599,,2239,1
1622094410957,654619,,2276,1
1622094410957,654639,,2317,1
1622094410976,654659,,2230,1
1622094410976,654679,,2240,1
1622094410976,654699,,2271,1
1622094410976,654719,,2239,1
1622094410976,654740,,2107,1
1622094410976,654760,,1959,1
1622094410976,654780,,1847,1
1622094410976,654800,,1781,1
1622094410976,654820,,1739,1
1622094410976,654840,,1751,1
1622094410976,654860,,1757,1
1622094410976,654880,,1776,1
1622094410976,654900,,1792,1
1622094410976,654920,,1776,1
1622094410976,654940,,1798,1
1622094410976,654961,,1804,1
1622094410976,654981,,1823,1
1622094410976,655001,,1878,1
1622094410976,655021,,1950,1
1622094410976,655041,,2117,1
1622094410976,655061,,2241,1
1622094410976,655081,,2340,1
1622094410976,655101,,2398,1
1622094410976,655121,,2391,1
1622094410976,655141,,2432,1
1622094411004,655161,,2337,1
1622094411004,655182,,2332,1
1622094411004,655202,,2350,1
1622094411004,655222,,2256,1
1622094411004,655242,,2135,1
1622094411004,655262,,1982,1
1622094411004,655282,,1865,1
1622094411004,655302,,1787,1
1622094411004,655322,,1709,1
1622094411004,655342,,1742,1
1622094411004,655362,,1755,1
1622094411004,655382,,1767,1
1622094411004,655403,,1769,1
1622094411004,655423,,1742,1
1622094411004,655443,,1794,1
1622094411004,655463,,1840,1
1622094411004,655483,,1913,1
1622094411004,655503,,2020,1
1622094411004,655523,,2149,1
1622094411004,655543,,2295,1
1622094411004,655563,,2416,1
1622094411004,655583,,2496,1
1622094411004,655603,,2541,1
1622094411004,655624,,2541,1
1622094411004,655644,,2511,1
1622094411022,655664,,2384,1
1622094411022,655684,,2343,1
1622094411022,655704,,2336,1
1622094411022,655724,,2294,1
1622094411022,655744,,2147,1
1622094411022,655764,,2030,1
1622094411022,655784,,1924,1
1622094411022,655804,,1851,1
1622094411022,655824,,1802,1
1622094411022,655845,,1763,1
1622094411022,655865,,1778,1
1622094411022,655885,,1781,1
1622094411022,655905,,1776,1
1622094411022,655925,,1776,1
1622094411022,655945,,1794,1
1622094411022,655965,,1911,1
1622094411022,655985,,2046,1
1622094411022,656005,,2206,1
1622094411022,656025,,2366,1
1622094411022,656045,,2480,1
1622094411022,656066,,2617,1
1622094411022,656086,,2663,1
1622094411022,656106,,2651,1
1622094411022,656126,,2595,1
1622094411022,656146,,2473,1
1622094411301,656166,,2320,1
1622094411301,656186,,2256,1
1622094411301,656206,,2229,1
1622094411301,656226,,2183,1
1622094411301,656246,,1998,1
1622094411301,656266,,1904,1
1622094411301,656287,,1819,1
1622094411301,656307,,1773,1
1622094411301,656327,,1750,1
1622094411301,656347,,1711,1
1622094411301,656367,,1755,1
1622094411301,656387,,1750,1
1622094411301,656407,,1744,1
1622094411301,656427,,1770,1
1622094411301,656447,,1825,1
1622094411301,656468,,2000,1
1622094411301,656488,,2173,1
1622094411301,656509,,2329,1
1622094411301,656529,,2460,1
1622094411301,656549,,2527,1
1622094411301,656569,,2607,1
1622094411301,656589,,2604,1
1622094411301,656609,,2544,1
1622094411301,656629,,2439,1
1622094411301,656649,,2335,1
1622094412197,656669,,2133,1
1622094412197,656689,,2071,1
1622094412197,656709,,2045,1
1622094412197,656730,,2028,1
1622094412197,656750,,1909,1
1622094412197,656770,,1796,1
1622094412197,656790,,1732,1
1622094412197,656810,,1670,1
1622094412197,656830,,1633,1
1622094412197,656850,,1610,1
1622094412197,656870,,1601,1
1622094412197,656890,,1633,1
1622094412197,656910,,1671,1
1622094412197,656930,,1763,1
1622094412197,656951,,1898,1
1622094412197,656971,,2046,1
1622094412197,656991,,2256,1
1622094412197,657011,,2393,1
1622094412197,657031,,2483,1
1622094412197,657051,,2517,1
1622094412197,657071,,2480,1
1622094412197,657091,,2441,1
1622094412197,657111,,2334,1
1622094412197,657131,,2198,1
1622094412197,657151,,2042,1
1622094412758,657171,,1829,1
1622094412758,657191,,1778,1
1622094412758,657211,,1782,1
1622094412758,657231,,1843,1
1622094412758,657251,,1783,1
1622094412758,657271,,1669,1
1622094412758,657291,,1635,1
1622094412758,657311,,1587,1
1622094412758,657331,,1553,1
1622094412758,657351,,1535,1
1622094412758,657371,,1491,1
1622094412758,657391,,1568,1
1622094412758,657411,,1651,1
1622094412758,657431,,1766,1
1622094412758,657451,,1905,1
1622094412758,657471,,2032,1
1622094412758,657491,,2204,1
1622094412758,657511,,2310,1
1622094412758,657531,,2361,1
1622094412758,657551,,2363,1
1622094412758,657571,,2306,1
1622094412758,657591,,2224,1
1622094412758,657612,,2115,1
1622094412758,657632,,2000,1
1622094412758,657652,,1888,1
1622094412806,657672,,1718,1
1622094412806,657692,,1689,1
1622094412806,657712,,1738,1
1622094412806,657732,,1769,1
1622094412806,657752,,1676,1
1622094412806,657772,,1584,1
1622094412806,657792,,1500,1
1622094412806,657812,,1477,1
1622094412806,657833,,1457,1
1622094412806,657853,,1448,1
1622094412806,657873,,1466,1
1622094412806,657893,,1521,1
1622094412806,657913,,1650,1
1622094412806,657933,,1783,1
1622094412806,657953,,1922,1
1622094412806,657973,,2039,1
1622094412806,657993,,2119,1
1622094412806,658013,,2183,1
1622094412806,658033,,2181,1
1622094412806,658054,,2131,1
1622094412806,658074,,2046,1
1622094412806,658094,,1931,1
1622094412806,658114,,1862,1
1622094412806,658134,,1773,1
1622094412806,658154,,1687,1
1622094413793,658174,,1549,1
1622094413793,658194,,1568,1
1622094413793,658214,,1583,1
1622094413793,658234,,1619,1
1622094413793,658254,,1691,1
1622094413793,658275,,1646,1
1622094413793,658295,,1507,1
1622094413793,658315,,1465,1
1622094413793,658335,,1414,1
1622094413793,658355,,1396,1
1622094413793,658375,,1423,1
1622094413793,658395,,1467,1
1622094413793,658415,,1635,1
1622094413793,658435,,1776,1
1622094413793,658455,,1872,1
1622094413793,658475,,1954,1
1622094413793,658496,,1968,1
1622094413793,658516,,2010,1
1622094413793,658536,,1999,1
1622094413793,658556,,1950,1
1622094413793,658576,,1879,1
1622094413793,658596,,1792,1
1622094413793,658616,,1649,1
1622094413793,658636,,1639,1
1622094413793,658656,,1664,1
1622094413986,658676,,1631,1
1622094413986,658696,,1616,1
1622094413986,658717,,1642,1
1622094413986,658737,,1643,1
1622094413986,658757,,1551,1
1622094413986,658777,,1458,1
1622094413986,658797,,1397,1
1622094413986,658817,,1303,1
1622094413986,658837,,1360,1
1622094413986,658857,,1474,1
1622094413986,658877,,1587,1
1622094413986,658897,,1738,1
1622094413986,658917,,1807,1
1622094413986,658938,,1810,1
1622094413986,658958,,1782,1
1622094413986,658978,,1749,1
1622094413986,658998,,1735,1
1622094413986,659018,,1664,1
1622094413986,659038,,1706,1
1622094413986,659058,,1755,1
1622094413986,659078,,1852,1
1622094413986,659098,,1789,1
1622094413986,659118,,1617,1
1622094413986,659138,,1553,1
1622094413986,659158,,1547,1
1622094414404,659178,,1557,1
1622094414404,659198,,1570,1
1622094414404,659218,,1584,1
1622094414404,659238,,1583,1
1622094414404,659258,,1569,1
1622094414404,659278,,1550,1
1622094414404,659298,,1590,1
1622094414404,659318,,1456,1
1622094414404,659338,,1383,1
1622094414404,659358,,1439,1
1622094414404,659379,,1547,1
1622094414404,659399,,1653,1
1622094414404,659419,,1745,1
1622094414404,659439,,1805,1
1622094414404,659459,,1891,0
1622094414404,659479,,1859,0
1622094414404,659499,,1776,0
1622094414404,659519,,1664,0
1622094414404,659539,,1597,0
1622094414404,659559,,1633,0
1622094414404,659579,,1680,0
1622094414404,659600,,1701,0
1622094414404,659620,,1690,0
1622094414404,659640,,1675,0
1622094414404,659660,,1635,0
1622094415223,659680,,1619,0
1622094415223,659700,,1603,0
1622094415223,659720,,1592,0
1622094415223,659740,,1582,0
1622094415223,659760,,1564,0
1622094415223,659780,,1606,0
1622094415223,659800,,1573,0
1622094415223,659821,,1488,0
1622094415223,659841,,1374,0
1622094415223,659861,,1429,0
1622094415223,659881,,1570,0
1622094415223,659901,,1709,0
1622094415223,659921,,1803,0
1622094415223,659941,,1858,0
1622094415223,659961,,1927,0
1622094415223,659981,,1868,0
1622094415223,660001,,1769,0
1622094415223,660021,,1701,0
1622094415223,660041,,1587,0
1622094415223,660061,,1619,0
1622094415223,660081,,1671,0
1622094415223,660101,,1743,0
1622094415223,660121,,1774,0
1622094415223,660141,,1807,0
1622094415223,660161,,1771,0
1622094415662,660181,,1606,0
1622094415662,660201,,1575,0
1622094415662,660221,,1616,0
1622094415662,660241,,1613,0
1622094415662,660262,,1581,0
1622094415662,660282,,1595,0
1622094415662,660302,,1616,0
1622094415662,660322,,1632,0
1622094415662,660342,,1648,0
1622094415662,660362,,1683,0
1622094415662,660382,,1787,0
1622094415662,660402,,1801,0
1622094415662,660422,,1767,0
1622094415662,660442,,1712,0
1622094415662,660462,,1695,1
1622094415662,660483,,1773,1
1622094415662,660503,,1865,1
1622094415662,660523,,1904,1
1622094415662,660543,,1903,1
1622094415662,660563,,1925,1
1622094415662,660583,,1814,1
1622094415662,660603,,1685,1
1622094415662,660623,,1579,1
1622094415662,660643,,1519,1
1622094415662,660663,,1456,1
1622094415848,660683,,1545,1
1622094415848,660704,,1661,1
1622094415848,660724,,1727,1
1622094415848,660744,,1793,0
1622094415848,660764,,1806,0
1622094415848,660784,,1725,0
1622094415848,660804,,1629,0
1622094415848,660824,,1578,0
1622094415848,660844,,1579,0
1622094415848,660864,,1563,0
1622094415848,660884,,1702,0
1622094415848,660904,,1856,0
1622094415848,660925,,2015,0
1622094415848,660945,,2003,0
1622094415848,660965,,1877,0
1622094415848,660985,,1879,0
1622094415848,661005,,1894,0
1622094415848,661025,,1909,0
1622094415848,661045,,1894,0
1622094415848,661065,,1854,0
1622094415848,661085,,1803,0
1622094415848,661105,,1822,0
1622094415848,661125,,1731,0
1622094415848,661146,,1639,0
1622094415848,661166,,1515,0
1622094416568,661186,,1532,0
1622094416568,661206,,1606,0
1622094416568,661226,,1701,0
1622094416568,661246,,1749,0
1622094416568,661266,,1799,0
1622094416568,661286,,1798,0
1622094416568,661306,,1712,0
1622094416568,661326,,1653,0
1622094416568,661346,,1651,0
1622094416568,661367,,1651,0
1622094416568,661387,,1734,0
1622094416568,661407,,1883,0
1622094416568,661427,,2080,0
1622094416568,661447,,2123,0
1622094416568,661467,,2013,0
1622094416568,661487,,1909,0
1622094416568,661507,,1879,0
1622094416568,661527,,1903,0
1622094416568,661547,,1905,0
1622094416568,661567,,1871,0
1622094416568,661587,,1883,0
1622094416568,661607,,1790,0
1622094416568,661627,,1682,0
1622094416568,661647,,1616,0
1622094416568,661667,,1592,0
1622094416872,661687,,1553,0
1622094416872,661707,,1647,0
1622094416872,661727,,1739,0
1622094416872,661747,,1808,0
1622094416872,661767,,1837,0
1622094416872,661787,,1899,0
1622094416872,661808,,1879,0
1622094416872,661828,,1834,0
1622094416872,661848,,1818,0
1622094416872,661868,,1840,0
1622094416872,661888,,1839,0
1622094416872,661908,,1945,0
1622094416872,661928,,2057,0
1622094416872,661948,,2119,0
1622094416872,661968,,2125,0
1622094416872,661988,,2092,0
1622094416872,662008,,2026,0
1622094416872,662029,,1949,0
1622094416872,662049,,1895,0
1622094416872,662069,,1848,0
1622094416872,662089,,1857,0
1622094416872,662109,,1810,0
1622094416872,662129,,1722,0
1622094416872,662149,,1663,0
1622094416872,662169,,1633,0
1622094417803,662189,,1570,0
1622094417803,662209,,1646,0
1622094417803,662229,,1731,0
1622094417803,662250,,1808,0
1622094417803,662270,,1862,0
1622094417803,662290,,1921,0
1622094417803,662310,,1973,0
1622094417803,662330,,2016,0
1622094417803,662350,,2042,0
1622094417803,662370,,2066,0
1622094417803,662390,,2111,0
1622094417803,662410,,2092,0
1622094417803,662430,,2005,0
1622094417803,662450,,1917,0
1622094417803,662471,,1842,0
1622094417803,662491,,1758,0
1622094417803,662511,,1720,0
1622094417803,662531,,1761,0
1622094417803,662551,,1854,0
1622094417803,662571,,1903,0
1622094417803,662591,,1933,0
1622094417803,662611,,1936,0
1622094417803,662631,,1834,0
1622094417803,662651,,1729,0
1622094417803,662671,,1657,0
1622094417899,662691,,1553,0
1622094417899,662711,,1610,0
1622094417899,662731,,1728,0
1622094417899,662751,,1854,0
1622094417899,662771,,1877,0
1622094417899,662791,,1908,0
1622094417899,662811,,1893,0
1622094417899,662831,,1997,0
1622094417899,662851,,2100,0
1622094417899,662871,,2155,0
1622094417899,662891,,2159,0
1622094417899,662911,,2172,0
1622094417899,662931,,2059,0
1622094417899,662951,,1907,0
1622094417899,662971,,1781,0
1622094417899,662991,,1716,0
1622094417899,663011,,1628,0
1622094417899,663031,,1679,0
1622094417899,663051,,1759,0
1622094417899,663071,,1885,0
1622094417899,663091,,1857,0
1622094417899,663111,,1722,0
1622094417899,663132,,1705,0
1622094417899,663152,,1725,0
1622094417899,663172,,1757,0
1622094418322,663192,,1787,0
1622094418322,663212,,1814,0
1622094418322,663232,,1840,0
1622094418322,663252,,1895,0
1622094418322,663272,,1957,0
1622094418322,663292,,2000,0
1622094418322,663312,,2061,0
1622094418322,663332,,2117,0
1622094418322,663353,,2037,0
1622094418322,663373,,1953,0
1622094418322,663393,,1886,0
1622094418322,663413,,1793,0
1622094418322,663433,,1803,0
1622094418322,663453,,1782,0
1622094418322,663473,,1754,0
1622094418322,663493,,1734,0
1622094418322,663513,,1697,0
1622094418322,663533,,1666,0
1622094418322,663553,,1740,0
1622094418322,663574,,1805,0
1622094418322,663594,,1849,0
1622094418322,663614,,1834,0
1622094418322,663634,,1811,0
1622094418322,663654,,1777,0
1622094418322,663674,,1755,0
1622094418828,663694,,1766,0
1622094418828,663714,,1814,0
1622094418828,663734,,1883,0
1622094418828,663754,,1956,0
1622094418828,663774,,2011,0
1622094418828,663794,,2054,0
1622094418828,663814,,2063,0
1622094418828,663834,,2061,1
1622094418828,663854,,2021,1
1622094418828,663874,,1973,1
1622094418828,663894,,1915,1
1622094418828,663914,,1864,1
1622094418828,663934,,1837,1
1622094418828,663954,,1803,1
1622094418828,663974,,1840,1
1622094418828,663994,,1783,1
1622094418828,664015,,1692,1
1622094418828,664035,,1569,1
1622094418828,664055,,1587,1
1622094418828,664075,,1659,1
1622094418828,664095,,1787,1
1622094418828,664115,,1761,1
1622094418828,664135,,1648,1
1622094418828,664155,,1679,1
1622094418828,664175,,1794,1
1622094419341,664195,,1938,1
1622094419341,664215,,2059,1
1622094419341,664236,,2119,1
1622094419341,664256,,2143,1
1622094419341,664276,,2147,1
1622094419341,664296,,2121,1
1622094419341,664316,,2070,1
1622094419341,664336,,2007,1
1622094419341,664356,,1936,1
1622094419341,664376,,1872,1
1622094419341,664396,,1819,1
1622094419341,664416,,1775,1
1622094419341,664436,,1753,1
1622094419341,664457,,1744,1
1622094419341,664477,,1738,1
1622094419341,664497,,1733,1
1622094419341,664517,,1728,1
1622094419341,664537,,1722,1
1622094419341,664557,,1737,1
1622094419341,664577,,1756,1
1622094419341,664597,,1695,1
1622094419341,664617,,1664,1
1622094419341,664637,,1682,1
1622094419341,664657,,1712,1
1622094419341,664678,,1893,1
1622094420265,664698,,2034,1
1622094420265,664718,,2121,1
1622094420265,664738,,2171,1
1622094420265,664758,,2169,1
1622094420265,664778,,2185,1
1622094420265,664798,,2077,1
1622094420265,664818,,1914,1
1622094420265,664838,,1796,1
1622094420265,664858,,1649,1
1622094420265,664878,,1679,1
1622094420265,664899,,1735,1
1622094420265,664919,,1797,1
1622094420265,664939,,1824,1
1622094420265,664959,,1853,1
1622094420265,664979,,1844,1
1622094420265,664999,,1735,1
1622094420265,665019,,1644,1
1622094420265,665039,,1583,1
1622094420265,665059,,1520,1
1622094420265,665079,,1623,1
1622094420265,665099,,1797,1
1622094420265,665120,,1968,1
1622094420265,665140,,2095,1
1622094420265,665160,,2187,1
1622094420265,665180,,2227,1
1622094423057,665200,,2075,1
1622094423057,665220,,2015,1
1622094423057,665240,,2026,1
1622094423057,665260,,1979,1
1622094423057,665280,,1904,1
1622094423057,665300,,1797,1
1622094423057,665320,,1719,1
1622094423057,665341,,1679,1
1622094423057,665361,,1607,1
1622094423057,665381,,1626,1
1622094423057,665401,,1712,1
1622094423057,665421,,1776,1
1622094423057,665441,,1821,1
1622094423057,665461,,1820,1
1622094423057,665481,,1793,1
1622094423057,665501,,1822,1
1622094423057,665521,,1727,1
1622094423057,665541,,1651,1
1622094423057,665562,,1601,1
1622094423057,665582,,1638,1
1622094423057,665602,,1794,1
1622094423057,665622,,1968,1
1622094423057,665642,,2103,1
1622094423057,665662,,2085,1
1622094423057,665682,,2060,1
1622094426265,665702,,1936,1
1622094426265,665722,,1925,1
1622094426265,665742,,1923,1
1622094426265,665762,,1904,1
1622094426265,665783,,1889,1
1622094426265,665803,,1867,1
1622094426265,665823,,1749,1
1622094426265,665843,,1650,1
1622094426265,665863,,1594,1
1622094426265,665883,,1501,1
1622094426265,665903,,1559,1
1622094426265,665923,,1627,1
1622094426265,665943,,1709,1
1622094426265,665963,,1745,1
1622094426265,665983,,1808,1
1622094426265,666004,,1807,1
1622094426265,666024,,1762,1
1622094426265,666044,,1753,1
1622094426265,666064,,1775,1
1622094426265,666084,,1749,1
1622094426265,666104,,1853,1
1622094426265,666124,,1953,1
1622094426265,666144,,2099,1
1622094426265,666164,,2070,1
1622094426265,666184,,1910,1
1622094426550,666205,,1849,1
1622094426550,666226,,1845,1
1622094426550,666246,,1834,1
1622094426550,666266,,1819,1
1622094426550,666286,,1791,1
1622094426550,666306,,1817,1
1622094426550,666326,,1723,1
1622094426550,666346,,1623,1
1622094426550,666366,,1585,1
1622094426550,666386,,1552,1
1622094426550,666406,,1604,1
1622094426550,666426,,1619,1
1622094426550,666447,,1638,1
1622094426550,666467,,1664,1
1622094426550,666487,,1693,1
1622094426550,666507,,1814,1
1622094426550,666527,,1910,1
1622094426550,666547,,1989,1
1622094426550,666567,,2047,1
1622094426550,666587,,2043,1
1622094426550,666607,,2047,1
1622094426550,666627,,2112,1
1622094426550,666647,,2198,1
1622094426550,666668,,2171,1
1622094426550,666688,,2000,1
1622094426971,666708,,1838,1
1622094426971,666728,,1788,1
1622094426971,666748,,1792,1
1622094426971,666768,,1817,1
1622094426971,666788,,1825,1
1622094426971,666808,,1701,1
1622094426971,666828,,1683,1
1622094426971,666848,,1735,1
1622094426971,666868,,1781,1
1622094426971,666889,,1706,1
1622094426971,666909,,1602,1
1622094426971,666929,,1664,1
1622094426971,666949,,1818,1
1622094426971,666969,,1983,1
1622094426971,666989,,2047,1
1622094426971,667009,,2027,1
1622094426971,667029,,2160,1
1622094426971,667049,,2288,1
1622094426971,667069,,2418,1
1622094426971,667089,,2416,1
1622094426971,667110,,2314,1
1622094426971,667130,,2224,1
1622094426971,667150,,2107,1
1622094426971,667170,,2006,1
1622094426971,667190,,1947,1
1622094427199,667210,,1828,1
1622094427199,667230,,1840,1
1622094427199,667250,,1901,1
1622094427199,667270,,1914,1
1622094427199,667290,,1829,1
1622094427199,667310,,1673,1
1622094427199,667331,,1651,1
1622094427199,667351,,1696,1
1622094427199,667371,,1802,1
1622094427199,667391,,1791,1
1622094427199,667411,,1695,1
1622094427199,667431,,1744,1
1622094427199,667451,,1886,1
1622094427199,667471,,2113,1
1622094427199,667491,,2202,1
1622094427199,667511,,2190,1
1622094427199,667531,,2186,1
1622094427199,667552,,2260,1
1622094427199,667572,,2363,1
1622094427199,667592,,2321,1
1622094427199,667612,,2150,1
1622094427199,667632,,2015,1
1622094427199,667652,,1970,1
1622094427199,667672,,1997,1
1622094427199,667692,,1957,1
1622094427370,667712,,1794,1
1622094427370,667732,,1775,1
1622094427370,667752,,1829,1
1622094427370,667773,,1867,1
1622094427370,667793,,1806,1
1622094427370,667813,,1699,1
1622094427370,667833,,1616,1
1622094427370,667853,,1655,1
1622094427370,667873,,1759,1
1622094427370,667893,,1844,1
1622094427370,667913,,1851,1
1622094427370,667933,,1840,1
1622094427370,667953,,1984,1
1622094427370,667973,,2135,1
1622094427370,667993,,2332,1
1622094427370,668013,,2342,1
1622094427370,668033,,2289,1
1622094427370,668053,,2238,1
1622094427370,668073,,2151,1
1622094427370,668093,,2037,1
1622094427370,668113,,1933,1
1622094427370,668133,,1838,1
1622094427370,668153,,1793,1
1622094427370,668173,,1743,1
1622094427370,668193,,1693,1
1622094430272,671727,,1845,0
1622094430272,671748,,1894,0
1622094430272,671768,,1961,1
1622094430272,671788,,1930,1
1622094430272,671808,,1782,1
1622094430272,671828,,1625,1
1622094430272,671848,,1591,1
1622094430272,671868,,1624,1
1622094430272,671888,,1627,1
1622094430272,671908,,1549,1
1622094430272,671928,,1425,1
1622094430272,671948,,1476,1
1622094430272,671969,,1564,1
1622094430272,671989,,1643,1
1622094430272,672009,,1584,1
1622094430272,672029,,1524,1
1622094430272,672049,,1482,1
1622094430272,672069,,1456,1
1622094430272,672089,,1470,1
1622094430272,672109,,1525,1
1622094430272,672129,,1542,1
1622094430272,672149,,1699,1
1622094430272,672169,,1840,1
1622094430272,672189,,2000,1
1622094430272,672209,,1981,0
1622094431080,672732,,1937,0
1622094431080,672752,,1907,0
1622094431080,672772,,1893,0
1622094431080,672792,,1835,0
1622094431080,672812,,1702,0
1622094431080,672832,,1565,0
1622094431080,672853,,1467,0
1622094431080,672873,,1558,0
1622094431080,672893,,1657,0
1622094431080,672913,,1734,0
1622094431080,672933,,1665,0
1622094431080,672953,,1632,0
1622094431080,672973,,1584,0
1622094431080,672993,,1535,0
1622094431080,673013,,1513,0
1622094431080,673033,,1509,0
1622094431080,673053,,1553,0
1622094431080,673074,,1591,0
1622094431080,673094,,1611,0
1622094431080,673114,,1647,0
1622094431080,673134,,1703,0
1622094431080,673154,,1781,0
1622094431080,673174,,1872,0
1622094431080,673194,,1923,0
1622094431080,673214,,1937,1
1622094431673,673234,,1873,1
1622094431673,673254,,1909,1
1622094431673,673274,,1987,1
1622094431673,673295,,1984,1
1622094431673,673315,,1879,1
1622094431673,673335,,1769,1
1622094431673,673355,,1617,1
1622094431673,673375,,1630,1
1622094431673,673395,,1690,1
1622094431673,673415,,1802,1
1622094431673,673435,,1777,1
1622094431673,673455,,1648,1
1622094431673,673475,,1631,1
1622094431673,673495,,1669,1
1622094431673,673516,,1776,1
1622094431673,673536,,1739,1
1622094431673,673556,,1600,1
1622094431673,673576,,1577,1
1622094431673,673596,,1621,1
1622094431673,673616,,1744,1
1622094431673,673636,,1783,1
1622094431673,673656,,1744,1
1622094431673,673676,,1790,1
1622094431673,673696,,1917,1
1622094431673,673716,,2079,1
1622094433132,674237,,2055,0
1622094433132,674257,,2128,0
1622094433132,674277,,2178,0
1622094433132,674297,,2187,0
1622094433132,674317,,2213,0
1622094433132,674337,,2092,0
1622094433132,674357,,1951,0
1622094433132,674377,,1769,0
1622094433132,674398,,1738,0
1622094433132,674418,,1777,0
1622094433132,674438,,1893,0
1622094433132,674458,,1874,0
1622094433132,674478,,1746,0
1622094433132,674498,,1735,0
1622094433132,674518,,1773,0
1622094433132,674538,,1868,0
1622094433132,674558,,1840,0
1622094433132,674578,,1708,0
1622094433132,674598,,1669,0
1622094433132,674619,,1717,0
1622094433132,674639,,1823,0
1622094433132,674659,,1813,0
1622094433132,674679,,1696,0
1622094433132,674699,,1650,0
1622094433132,674719,,1727,0
1622094433677,674739,,1852,0
1622094433677,674759,,1984,0
1622094433677,674779,,2096,0
1622094433677,674799,,2170,0
1622094433677,674819,,2203,0
1622094433677,674840,,2256,0
1622094433677,674860,,2214,0
1622094433677,674880,,2064,0
1622094433677,674900,,1922,0
1622094433677,674920,,1904,0
1622094433677,674940,,1927,0
1622094433677,674960,,1956,0
1622094433677,674980,,1863,0
1622094433677,675000,,1735,0
1622094433677,675020,,1758,0
1622094433677,675040,,1796,0
1622094433677,675060,,1825,0
1622094433677,675080,,1839,0
1622094433677,675100,,1831,0
1622094433677,675120,,1874,0
1622094433677,675140,,1813,0
1622094433677,675160,,1714,0
1622094433677,675180,,1638,0
1622094433677,675200,,1532,0
1622094433677,675220,,1579,0
1622094434362,675240,,1662,0
1622094434362,675260,,1744,0
1622094434362,675281,,1865,0
1622094434362,675301,,1907,0
1622094434362,675321,,1986,0
1622094434362,675341,,2093,0
1622094434362,675361,,2233,0
1622094434362,675381,,2221,0
1622094434362,675401,,2096,0
1622094434362,675421,,2070,0
1622094434362,675441,,2089,0
1622094434362,675461,,2165,0
1622094434362,675481,,2101,0
1622094434362,675502,,1909,0
1622094434362,675522,,1850,0
1622094434362,675542,,1838,0
1622094434362,675562,,1871,0
1622094434362,675582,,1872,0
1622094434362,675602,,1862,0
1622094434362,675622,,1809,0
1622094434362,675642,,1790,0
1622094434362,675662,,1841,0
1622094434362,675682,,1812,0
1622094434362,675702,,1679,0
1622094434362,675723,,1616,0
1622094435487,676246,,1650,1
1622094435487,676266,,1750,1
1622094435487,676286,,1855,1
1622094435487,676306,,1887,1
1622094435487,676326,,1754,1
1622094435487,676346,,1735,1
1622094435487,676366,,1744,1
1622094435487,676386,,1812,1
1622094435487,676406,,1751,1
1622094435487,676426,,1614,1
1622094435487,676446,,1635,1
1622094435487,676466,,1765,1
1622094435487,676486,,1984,1
1622094435487,676506,,2098,1
1622094435487,676526,,2107,1
1622094435487,676546,,2181,1
1622094435487,676566,,2277,1
1622094435487,676586,,2397,1
1622094435487,676606,,2351,1
1622094435487,676626,,2227,1
1622094435487,676646,,2107,1
1622094435487,676666,,2090,1
1622094435487,676686,,2114,1
1622094435487,676706,,2064,1
1622094435487,676726,,1920,1
1622094435585,676746,,1797,1
1622094435585,676766,,1793,1
1622094435585,676786,,1847,1
1622094435585,676806,,1909,1
1622094435585,676827,,1817,1
1622094435585,676847,,1744,1
1622094435585,676867,,1774,1
1622094435585,676887,,1855,1
1622094435585,676907,,1887,1
1622094435585,676927,,1789,1
1622094435585,676947,,1686,1
1622094435585,676967,,1692,1
1622094435585,676987,,1761,1
1622094435585,677007,,1792,1
1622094435585,677027,,1722,1
1622094435585,677048,,1632,1
1622094435585,677068,,1719,1
1622094435585,677088,,1920,1
1622094435585,677108,,2112,1
1622094435585,677128,,2183,1
1622094435585,677148,,2174,1
1622094435585,677168,,2257,1
1622094435585,677188,,2333,1
1622094435585,677208,,2411,1
1622094435585,677228,,2323,1
1622094435605,677248,,2142,1
1622094435605,677269,,2081,1
1622094435605,677289,,2074,1
1622094435605,677309,,2045,1
1622094435605,677329,,1935,1
1622094435605,677349,,1776,1
1622094435605,677369,,1762,1
1622094435605,677389,,1810,1
1622094435605,677409,,1930,1
1622094435605,677429,,1898,1
1622094435605,677449,,1776,1
1622094435605,677469,,1754,1
1622094435605,677490,,1790,1
1622094435605,677510,,1891,1
1622094435605,677530,,1852,1
1622094435605,677550,,1714,1
1622094435605,677570,,1676,1
1622094435605,677590,,1703,1
1622094435605,677610,,1783,1
1622094435605,677630,,1797,1
1622094435605,677650,,1751,1
1622094435605,677670,,1838,1
1622094435605,677690,,1945,1
1622094435605,677711,,2079,1
1622094435605,677731,,2193,1
1622094435621,677751,,2224,1
1622094435621,677771,,2326,1
1622094435621,677791,,2432,1
1622094435621,677811,,2454,1
1622094435621,677831,,2337,1
1622094435621,677851,,2171,1
1622094435621,677871,,2035,1
1622094435621,677891,,1936,1
1622094435621,677911,,1851,1
1622094435621,677931,,1797,1
1622094435621,677951,,1743,1
1622094435621,677971,,1711,1
1622094435621,677991,,1776,1
1622094435621,678011,,1885,1
1622094435621,678031,,1952,1
1622094435621,678051,,1872,1
1622094435621,678071,,1731,1
1622094435621,678091,,1718,1
1622094435621,678111,,1758,1
1622094435621,678131,,1794,1
1622094435621,678152,,1733,1
1622094435621,678172,,1603,1
1622094435621,678192,,1630,1
1622094435621,678212,,1735,1
1622094435621,678232,,1954,1
1622094435638,678252,,1986,1
1622094435638,678272,,2144,1
1622094435638,678292,,2295,1
1622094435638,678312,,2429,1
1622094435638,678332,,2482,1
1622094435638,678352,,2402,1
1622094435638,678373,,2256,1
1622094435638,678393,,2160,1
1622094435638,678413,,2044,1
1622094435638,678433,,1932,1
1622094435638,678453,,1849,1
1622094435638,678473,,1776,1
1622094435638,678493,,1783,1
1622094435638,678513,,1776,1
1622094435638,678533,,1776,1
1622094435638,678553,,1776,1
1622094435638,678573,,1707,1
1622094435638,678594,,1725,1
1622094435638,678614,,1781,1
1622094435638,678634,,1882,1
1622094435638,678654,,1856,1
1622094435638,678674,,1701,1
1622094435638,678694,,1633,1
1622094435638,678714,,1657,1
1622094435638,678734,,1786,1
1622094435689,679256,,1598,1
1622094435689,679276,,1771,1
1622094435689,679296,,2031,1
1622094435689,679316,,2317,1
1622094435689,679336,,2441,1
1622094435689,679356,,2503,1
1622094435689,679376,,2507,1
1622094435689,679396,,2463,1
1622094435689,679416,,2413,1
1622094435689,679436,,2319,1
1622094435689,679456,,2213,1
1622094435689,679477,,2110,1
1622094435689,679497,,1929,1
1622094435689,679517,,1873,1
1622094435689,679537,,1879,1
1622094435689,679557,,1939,1
1622094435689,679577,,1892,1
1622094435689,679597,,1741,1
1622094435689,679617,,1684,1
1622094435689,679637,,1701,1
1622094435689,679657,,1778,1
1622094435689,679677,,1744,1
1622094435689,679698,,1600,1
1622094435689,679718,,1534,1
1622094435689,679738,,1578,1
1622094435706,679759,,1692,1
1622094435706,679779,,1860,1
1622094435706,679799,,2064,1
1622094435706,679819,,2257,1
1622094435706,679839,,2442,1
1622094435706,679859,,2657,1
1622094435706,679879,,2683,1
1622094435706,679899,,2580,1
1622094435706,679920,,2451,1
1622094435706,679940,,2406,1
1622094435706,679960,,2403,1
1622094435706,679980,,2320,1
1622094435706,680000,,2131,1
1622094435706,680020,,1915,1
1622094435706,680040,,1853,1
1622094435706,680060,,1831,1
1622094435706,680080,,1829,1
1622094435706,680100,,1886,1
1622094435706,680120,,1859,1
1622094435706,680141,,1787,1
1622094435706,680161,,1714,1
1622094435706,680181,,1665,1
1622094435706,680201,,1609,1
1622094435706,680221,,1601,1
1622094435706,680241,,1616,1
1622094435722,680261,,1594,1
1622094435722,680281,,1766,1
1622094435722,680301,,2041,1
1622094435722,680321,,2277,1
1622094435722,680341,,2490,1
1622094435722,680361,,2691,1
1622094435722,680381,,2859,1
1622094435722,680401,,2832,1
1622094435722,680421,,2650,1
1622094435722,680441,,2549,1
1622094435722,680461,,2478,1
1622094435722,680481,,2378,1
1622094435722,680501,,2240,1
1622094435722,680521,,2108,1
1622094435722,680541,,2045,1
1622094435722,680561,,1910,1
1622094435722,680582,,1775,1
1622094435722,680602,,1692,1
1622094435722,680622,,1584,1
1622094435722,680642,,1586,1
1622094435722,680662,,1677,1
1622094435722,680682,,1744,1
1622094435722,680702,,1830,1
1622094435722,680722,,1751,1
1622094435722,680742,,1669,1
1622094435908,680762,,1670,1
1622094435908,680782,,1776,1
1622094435908,680803,,1967,1
1622094435908,680823,,2147,1
1622094435908,680843,,2271,1
1622094435908,680863,,2446,1
1622094435908,680883,,2559,1
1622094435908,680903,,2624,1
1622094435908,680923,,2624,1
1622094435908,680943,,2544,1
1622094435908,680963,,2428,1
1622094435908,680983,,2288,1
1622094435908,681003,,2123,1
1622094435908,681024,,1953,1
1622094435908,681044,,1810,1
1622094435908,681064,,1717,1
1622094435908,681084,,1664,1
1622094435908,681104,,1620,1
1622094435908,681124,,1603,1
1622094435908,681144,,1654,1
1622094435908,681164,,1659,1
1622094435908,681184,,1585,1
1622094435908,681204,,1515,1
1622094435908,681224,,1460,1
1622094435908,681244,,1358,1
1622094436405,681264,,1418,1
1622094436405,681284,,1563,1
1622094436405,681304,,1718,1
1622094436405,681324,,1954,1
1622094436405,681344,,2165,1
1622094436405,681364,,2334,1
1622094436405,681384,,2434,1
1622094436405,681404,,2555,1
1622094436405,681424,,2496,1
1622094436405,681444,,2299,1
1622094436405,681465,,2170,1
1622094436405,681485,,2090,1
1622094436405,681505,,1975,1
1622094436405,681525,,1857,1
1622094436405,681545,,1749,1
1622094436405,681565,,1664,1
1622094436405,681585,,1584,1
1622094436405,681605,,1591,1
1622094436405,681625,,1526,1
1622094436405,681645,,1373,1
1622094436405,681665,,1319,1
1622094436405,681686,,1359,1
1622094436405,681706,,1394,1
1622094436405,681726,,1422,1
1622094436405,681746,,1429,1
1622094437021,681767,,1459,1
1622094437021,681787,,1531,1
1622094437021,681807,,1655,1
1622094437021,681827,,1831,1
1622094437021,681847,,2019,1
1622094437021,681867,,2192,1
1622094437021,681887,,2309,1
1622094437021,681907,,2432,1
1622094437021,681927,,2374,1
1622094437021,681947,,2224,1
1622094437021,681967,,2027,1
1622094437021,681987,,1943,1
1622094437021,682007,,1889,1
1622094437021,682027,,1809,1
1622094437021,682047,,1729,1
1622094437021,682067,,1646,1
1622094437021,682087,,1583,1
1622094437021,682107,,1522,1
1622094437021,682128,,1485,1
1622094437021,682148,,1462,1
1622094437021,682168,,1451,1
1622094437021,682188,,1434,1
1622094437021,682208,,1492,1
1622094437021,682228,,1440,1
1622094437021,682248,,1369,1
1622094437432,682268,,1231,1
1622094437432,682288,,1307,1
1622094437432,682308,,1439,1
1622094437432,682328,,1691,1
1622094437432,682349,,1887,1
1622094437432,682369,,1952,1
1622094437432,682389,,2113,1
1622094437432,682409,,2267,1
1622094437432,682429,,2346,1
1622094437432,682449,,2355,1
1622094437432,682469,,2317,1
1622094437432,682489,,2214,1
1622094437432,682509,,2090,1
1622094437432,682529,,1931,1
1622094437432,682549,,1776,1
1622094437432,682570,,1648,1
1622094437432,682590,,1551,1
1622094437432,682610,,1474,1
1622094437432,682630,,1425,1
1622094437432,682650,,1410,1
1622094437432,682670,,1423,1
1622094437432,682690,,1439,1
1622094437432,682710,,1511,1
1622094437432,682730,,1501,1
1622094437432,682750,,1433,1
1622094437899,682770,,1300,1
1622094437899,682791,,1317,1
1622094437899,682811,,1368,1
1622094437899,682831,,1425,1
1622094437899,682851,,1535,1
1622094437899,682871,,1701,1
1622094437899,682891,,1885,1
1622094437899,682911,,2075,1
1622094437899,682931,,2242,1
1622094437899,682951,,2426,1
1622094437899,682971,,2384,1
1622094437899,682991,,2281,1
1622094437899,683011,,2224,1
1622094437899,683031,,2133,1
1622094437899,683051,,2004,1
1622094437899,683071,,1886,1
1622094437899,683091,,1764,1
1622094437899,683111,,1654,1
1622094437899,683131,,1563,1
1622094437899,683151,,1586,1
1622094437899,683171,,1490,1
1622094437899,683191,,1356,1
1622094437899,683211,,1374,1
1622094437899,683231,,1424,1
1622094437899,683251,,1469,1
1622094438401,683271,,1505,1
1622094438401,683291,,1520,1
1622094438401,683311,,1511,1
1622094438401,683331,,1491,1
1622094438401,683351,,1471,1
1622094438401,683371,,1479,1
1622094438401,683391,,1557,1
1622094438401,683411,,1773,1
1622094438401,683431,,1906,1
1622094438401,683451,,2042,1
1622094438401,683471,,2187,1
1622094438401,683491,,2225,1
1622094438401,683511,,2317,1
1622094438401,683531,,2379,1
1622094438401,683551,,2391,1
1622094438401,683571,,2320,1
1622094438401,683591,,2186,1
1622094438401,683611,,2016,1
1622094438401,683631,,1840,1
1622094438401,683651,,1695,1
1622094438401,683671,,1584,1
1622094438401,683691,,1494,1
1622094438401,683711,,1456,1
1622094438401,683731,,1431,1
1622094438401,683751,,1419,1
1622094438901,683771,,1426,1
1622094438901,683791,,1438,1
1622094438901,683811,,1451,1
1622094438901,683831,,1451,1
1622094438901,683851,,1427,1
1622094438901,683871,,1414,1
1622094438901,683892,,1403,1
1622094438901,683912,,1456,1
1622094438901,683932,,1472,1
1622094438901,683952,,1488,1
1622094438901,683972,,1579,1
1622094438901,683992,,1715,1
1622094438901,684012,,1889,1
1622094438901,684032,,2128,1
1622094438901,684052,,2320,1
1622094438901,684072,,2418,1
1622094438901,684092,,2421,1
1622094438901,684113,,2351,1
1622094438901,684133,,2210,1
1622094438901,684153,,2096,1
1622094438901,684173,,1920,1
1622094438901,684193,,1699,1
1622094438901,684213,,1424,1
1622094438901,684233,,1339,1
1622094438901,684253,,1328,1
1622094439499,684273,,1359,1
1622094439499,684293,,1391,1
1622094439499,684313,,1456,1
1622094439499,684333,,1472,1
1622094439499,684353,,1406,1
1622094439499,684373,,1335,1
1622094439499,684393,,1287,1
1622094439499,684413,,1201,1
1622094439499,684433,,1232,1
1622094439499,684453,,1300,1
1622094439499,684473,,1361,1
1622094439499,684493,,1393,1
1622094439499,684513,,1441,1
1622094439499,684533,,1438,1
1622094439499,684553,,1379,1
1622094439499,684573,,1380,1
1622094439499,684593,,1465,1
1622094439499,684613,,1558,1
1622094439499,684633,,1744,1
1622094439499,684653,,1987,1
1622094439499,684673,,2157,1
1622094439499,684693,,2243,1
1622094439499,684713,,2239,1
1622094439499,684733,,2165,1
1622094439499,684753,,2039,1
1622094440002,684773,,1889,1
1622094440002,684793,,1727,1
1622094440002,684813,,1587,1
1622094440002,684833,,1472,1
1622094440002,684853,,1396,1
1622094440002,684873,,1354,1
1622094440002,684893,,1338,1
1622094440002,684913,,1337,1
1622094440002,684933,,1354,1
1622094440002,684953,,1366,1
1622094440002,684973,,1427,1
1622094440002,684994,,1408,1
1622094440002,685014,,1322,1
1622094440002,685034,,1204,1
1622094440002,685054,,1232,1
1622094440002,685074,,1296,1
1622094440002,685094,,1333,1
1622094440002,685114,,1359,1
1622094440002,685134,,1360,1
1622094440002,685154,,1350,1
1622094440002,685174,,1341,1
1622094440002,685194,,1350,1
1622094440002,685215,,1445,1
1622094440002,685235,,1507,1
1622094440002,685255,,1581,1
1622094440525,685275,,1584,1
1622094440525,685295,,1741,1
1622094440525,685315,,1938,1
1622094440525,685335,,1990,1
1622094440525,685355,,2011,1
1622094440525,685375,,2019,1
1622094440525,685395,,1987,1
1622094440525,685415,,1909,1
1622094440525,685436,,1834,1
1622094440525,685456,,1742,1
1622094440525,685476,,1563,1
1622094440525,685496,,1419,1
1622094440525,685516,,1329,1
1622094440525,685536,,1232,1
1622094440525,685556,,1274,1
1622094440525,685576,,1392,1
1622094440525,685596,,1474,1
1622094440525,685616,,1523,1
1622094440525,685636,,1551,1
1622094440525,685657,,1535,1
1622094440525,685677,,1519,1
1622094440525,685697,,1495,1
1622094440525,685717,,1478,1
1622094440525,685737,,1463,1
1622094440525,685757,,1446,1
1622094441049,685777,,1421,1
1622094441049,685797,,1404,1
1622094441049,685817,,1424,1
1622094441049,685837,,1498,1
1622094441049,685857,,1616,1
1622094441049,685878,,1735,1
1622094441049,685898,,1867,1
1622094441049,685918,,1973,0
1622094441049,685938,,2042,0
1622094441049,685958,,2075,0
1622094441049,685978,,2047,0
1622094441049,685998,,1986,0
1622094441049,686018,,1982,0
1622094441049,686038,,1821,0
1622094441049,686058,,1680,0
1622094441049,686078,,1569,0
1622094441049,686099,,1471,0
1622094441049,686119,,1425,0
1622094441049,686139,,1424,0
1622094441049,686159,,1381,0
1622094441049,686179,,1442,0
1622094441049,686199,,1565,0
1622094441049,686219,,1630,0
1622094441049,686239,,1715,0
1622094441049,686259,,1678,0
1622094441661,686279,,1523,0
1622094441661,686299,,1485,0
1622094441661,686320,,1514,0
1622094441661,686340,,1533,0
1622094441661,686360,,1402,0
1622094441661,686380,,1392,0
1622094441661,686400,,1431,0
1622094441661,686420,,1482,0
1622094441661,686440,,1509,0
1622094441661,686460,,1552,0
1622094441661,686480,,1604,0
1622094441661,686500,,1702,0
1622094441661,686520,,1874,0
1622094441661,686541,,1965,0
1622094441661,686561,,1977,0
1622094441661,686581,,2033,0
1622094441661,686601,,2044,0
1622094441661,686621,,2043,0
1622094441661,686641,,2022,0
1622094441661,686661,,1923,0
1622094441661,686681,,1889,0
1622094441661,686701,,1892,0
1622094441661,686721,,1936,0
1622094441661,686741,,1858,0
1622094441661,686762,,1671,0
1622094441958,686782,,1578,0
1622094441958,686802,,1581,0
1622094441958,686822,,1603,0
1622094441958,686842,,1623,0
1622094441958,686862,,1633,0
1622094441958,686882,,1625,0
1622094441958,686902,,1613,0
1622094441958,686922,,1590,1
1622094441958,686942,,1575,1
1622094441958,686962,,1586,1
1622094441958,686983,,1462,1
1622094441958,687003,,1446,1
1622094441958,687023,,1467,1
1622094441958,687043,,1495,1
1622094441958,687063,,1515,1
1622094441958,687083,,1528,1
1622094441958,687103,,1535,1
1622094441958,687123,,1552,1
1622094441958,687143,,1597,1
1622094441958,687163,,1670,1
1622094441958,687183,,1802,1
1622094441958,687204,,1949,0
1622094441958,687224,,2077,0
1622094441958,687244,,2282,0
1622094441958,687264,,2288,0
1622094442465,687284,,2161,0
1622094442465,687304,,2141,0
1622094442465,687324,,2119,0
1622094442465,687344,,2083,0
1622094442465,687364,,2020,0
1622094442465,687384,,1938,0
1622094442465,687404,,1887,0
1622094442465,687425,,1808,0
1622094442465,687445,,1668,0
1622094442465,687465,,1568,0
1622094442465,687485,,1426,0
1622094442465,687505,,1503,0
1622094442465,687525,,1600,0
1622094442465,687545,,1729,0
1622094442465,687565,,1739,0
1622094442465,687585,,1607,0
1622094442465,687605,,1575,0
1622094442465,687625,,1599,0
1622094442465,687646,,1627,0
1622094442465,687666,,1638,0
1622094442465,687686,,1630,0
1622094442465,687706,,1609,0
1622094442465,687726,,1586,0
1622094442465,687746,,1570,0
1622094442465,687766,,1575,0
1622094443394,687787,,1615,0
1622094443394,687807,,1693,0
1622094443394,687827,,1799,0
1622094443394,687847,,1947,0
1622094443394,687867,,2096,0
1622094443394,687887,,2238,0
1622094443394,687907,,2327,0
1622094443394,687927,,2377,0
1622094443394,687947,,2353,0
1622094443394,687967,,2288,0
1622094443394,687987,,2196,0
1622094443394,688007,,2135,0
1622094443394,688027,,2006,0
1622094443394,688047,,1829,0
1622094443394,688067,,1667,0
1622094443394,688088,,1570,0
1622094443394,688108,,1489,0
1622094443394,688128,,1566,0
1622094443394,688148,,1677,0
1622094443394,688168,,1774,0
1622094443394,688188,,1804,0
1622094443394,688208,,1849,0
1622094443394,688228,,1808,0
1622094443394,688248,,1692,0
1622094443394,688268,,1594,0
1622094445097,688288,,1455,0
1622094445097,688309,,1488,0
1622094445097,688329,,1605,0
1622094445097,688349,,1648,0
1622094445097,688369,,1601,0
1622094445097,688389,,1535,0
1622094445097,688409,,1425,0
1622094445097,688429,,1509,0
1622094445097,688449,,1666,0
1622094445097,688469,,1828,0
1622094445097,688489,,2010,0
1622094445097,688509,,2224,0
1622094445097,688530,,2370,0
1622094445097,688550,,2385,0
1622094445097,688570,,2361,0
1622094445097,688590,,2331,0
1622094445097,688610,,2221,0
1622094445097,688630,,2204,0
1622094445097,688650,,2188,0
1622094445097,688670,,2177,0
1622094445097,688690,,2106,0
1622094445097,688710,,2006,0
1622094445097,688730,,1967,0
1622094445097,688751,,1808,0
1622094445097,688771,,1668,0
1622094447054,688791,,1524,0
1622094447054,688811,,1567,0
1622094447054,688831,,1648,0
1622094447054,688851,,1703,0
1622094447054,688871,,1794,0
1622094447054,688891,,1776,0
1622094447054,688911,,1639,0
1622094447054,688931,,1568,0
1622094447054,688951,,1577,0
1622094447054,688971,,1607,0
1622094447054,688991,,1627,0
1622094447054,689011,,1621,0
1622094447054,689031,,1617,0
1622094447054,689051,,1602,0
1622094447054,689071,,1648,0
1622094447054,689091,,1589,0
1622094447054,689111,,1521,0
1622094447054,689131,,1494,0
1622094447054,689151,,1675,0
1622094447054,689171,,1914,0
1622094447054,689192,,2192,0
1622094447054,689212,,2400,0
1622094447054,689232,,2600,0
1622094447054,689252,,2607,0
1622094447054,689272,,2513,0
1622094447400,689793,,1726,1
1622094447400,689813,,1890,1
1622094447400,689833,,2079,1
1622094447400,689854,,2305,1
1622094447400,689874,,2486,1
1622094447400,689894,,2675,1
1622094447400,689914,,2674,1
1622094447400,689934,,2557,1
1622094447400,689954,,2467,1
1622094447400,689974,,2326,1
1622094447400,689994,,2178,1
1622094447400,690014,,2031,1
1622094447400,690034,,1861,1
1622094447400,690054,,1733,1
1622094447400,690075,,1723,1
1622094447400,690095,,1778,1
1622094447400,690115,,1807,1
1622094447400,690135,,1743,1
1622094447400,690155,,1615,1
1622094447400,690175,,1632,1
1622094447400,690195,,1665,1
1622094447400,690215,,1693,1
1622094447400,690235,,1698,1
1622094447400,690255,,1697,1
1622094447400,690275,,1671,1
1622094447619,691299,,2160,1
1622094447619,691319,,2044,1
1622094447619,691339,,1974,1
1622094447619,691359,,1882,1
1622094447619,691379,,1731,1
1622094447619,691400,,1661,1
1622094447619,691420,,1614,1
1622094447619,691440,,1595,1
1622094447619,691460,,1601,1
1622094447619,691480,,1616,1
1622094447619,691500,,1667,1
1622094447619,691520,,1680,1
1622094447619,691540,,1670,1
1622094447619,691560,,1648,1
1622094447619,691580,,1555,1
1622094447619,691600,,1578,1
1622094447619,691621,,1612,1
1622094447619,691641,,1685,1
1622094447619,691661,,1701,1
1622094447619,691681,,1700,1
1622094447619,691701,,1705,1
1622094447619,691721,,1777,1
1622094447619,691741,,1924,1
1622094447619,691761,,2153,1
1622094447619,691781,,2401,1
1622094447638,691801,,2613,1
1622094447638,691821,,2761,1
1622094447638,691842,,2812,1
1622094447638,691862,,2774,1
1622094447638,691882,,2699,1
1622094447638,691902,,2598,1
1622094447638,691922,,2357,1
1622094447638,691942,,2096,1
1622094447638,691962,,1882,1
1622094447638,691982,,1694,1
1622094447638,692002,,1558,1
1622094447638,692022,,1573,1
1622094447638,692042,,1664,1
1622094447638,692063,,1712,1
1622094447638,692083,,1648,1
1622094447638,692103,,1569,1
1622094447638,692123,,1596,1
1622094447638,692143,,1699,1
1622094447638,692163,,1728,1
1622094447638,692183,,1649,1
1622094447638,692203,,1507,1
1622094447638,692223,,1503,1
1622094447638,692243,,1553,1
1622094447638,692263,,1595,1
1622094447638,692284,,1506,1
1622094448224,692305,,1392,1
1622094448224,692325,,1414,1
1622094448224,692345,,1440,1
1622094448224,692365,,1527,1
1622094448224,692385,,1627,1
1622094448224,692405,,1745,1
1622094448224,692425,,1942,1
1622094448224,692445,,2147,1
1622094448224,692465,,2398,1
1622094448224,692485,,2512,1
1622094448224,692506,,2432,1
1622094448224,692526,,2422,1
1622094448224,692546,,2384,1
1622094448224,692566,,2320,1
1622094448224,692586,,2224,1
1622094448224,692606,,2147,1
1622094448224,692626,,1997,1
1622094448224,692646,,1812,1
1622094448224,692666,,1654,1
1622094448224,692686,,1554,1
1622094448224,692706,,1445,1
1622094448224,692727,,1485,1
1622094448224,692747,,1582,1
1622094448224,692767,,1725,1
1622094448224,692787,,1729,1
1622094448242,692807,,1597,1
1622094448242,692827,,1575,1
1622094448242,692847,,1581,1
1622094448242,692867,,1631,1
1622094448242,692887,,1552,1
1622094448242,692907,,1405,1
1622094448242,692927,,1360,1
1622094448242,692948,,1411,1
1622094448242,692968,,1471,1
1622094448242,692988,,1503,1
1622094448242,693008,,1523,1
1622094448242,693028,,1581,1
1622094448242,693048,,1499,1
1622094448242,693068,,1456,1
1622094448242,693088,,1505,1
1622094448242,693108,,1606,1
1622094448242,693128,,1783,1
1622094448242,693148,,2071,1
1622094448242,693169,,2323,1
1622094448242,693189,,2470,0
1622094448242,693209,,2512,0
1622094448242,693229,,2518,0
1622094448242,693249,,2396,0
1622094448242,693269,,2167,0
1622094448242,693289,,1958,0
1622094448831,693309,,1735,0
1622094448831,693329,,1670,0
1622094448831,693349,,1674,0
1622094448831,693369,,1680,0
1622094448831,693390,,1762,0
1622094448831,693410,,1710,0
1622094448831,693430,,1629,0
1622094448831,693450,,1587,0
1622094448831,693470,,1552,0
1622094448831,693490,,1530,0
1622094448831,693510,,1526,0
1622094448831,693530,,1467,0
1622094448831,693550,,1559,0
1622094448831,693570,,1629,0
1622094448831,693590,,1667,0
1622094448831,693611,,1679,0
1622094448831,693631,,1648,0
1622094448831,693651,,1613,0
1622094448831,693671,,1626,0
1622094448831,693691,,1513,0
1622094448831,693711,,1411,0
1622094448831,693731,,1298,0
1622094448831,693751,,1366,0
1622094448831,693771,,1524,0
1622094448831,693791,,1811,0
1622094451810,693811,,1919,0
1622094451810,693832,,2119,0
1622094451810,693852,,2335,0
1622094451810,693872,,2474,0
1622094451810,693892,,2452,0
1622094451810,693912,,2371,0
1622094451810,693932,,2195,0
1622094451810,693952,,2107,0
1622094451810,693972,,2079,0
1622094451810,693992,,2091,0
1622094451810,694012,,2000,0
1622094451810,694032,,1824,0
1622094451810,694053,,1728,0
1622094451810,694073,,1648,0
1622094451810,694093,,1611,0
1622094451810,694113,,1601,0
1622094451810,694133,,1578,0
1622094451810,694153,,1591,0
1622094451810,694173,,1680,0
1622094451810,694193,,1747,1
1622094451810,694213,,1783,1
1622094451810,694233,,1777,1
1622094451810,694253,,1758,1
1622094451810,694274,,1734,1
1622094451810,694294,,1684,1
1622094454018,694314,,1635,1
1622094454018,694334,,1612,1
1622094454018,694354,,1591,1
1622094454018,694374,,1616,1
1622094454018,694394,,1546,1
1622094454018,694414,,1462,1
1622094454018,694434,,1433,1
1622094454018,694454,,1414,1
1622094454018,694474,,1581,1
1622094454018,694495,,1807,1
1622094454018,694515,,2061,1
1622094454018,694535,,2192,1
1622094454018,694555,,2214,0
1622094454018,694575,,2342,0
1622094454018,694595,,2447,0
1622094454018,694615,,2537,0
1622094454018,694635,,2451,0
1622094454018,694655,,2261,0
1622094454018,694675,,2175,0
1622094454018,694695,,2128,0
1622094454018,694716,,2139,0
1622094454018,694736,,2027,0
1622094454018,694756,,1841,0
1622094454018,694776,,1809,0
1622094454018,694796,,1846,0
1622094456838,695319,,2628,0
1622094456838,695339,,2572,0
1622094456838,695359,,2487,0
1622094456838,695380,,2410,0
1622094456838,695400,,2229,0
1622094456838,695420,,2038,0
1622094456838,695440,,1919,0
1622094456838,695460,,1854,0
1622094456838,695480,,1869,0
1622094456838,695500,,1893,0
1622094456838,695520,,1895,0
1622094456838,695540,,1862,0
1622094456838,695560,,1810,0
1622094456838,695580,,1735,0
1622094456838,695601,,1673,0
1622094456838,695621,,1586,0
1622094456838,695641,,1491,0
1622094456838,695661,,1438,0
1622094456838,695681,,1435,0
1622094456838,695701,,1507,0
1622094456838,695721,,1606,0
1622094456838,695741,,1713,0
1622094456838,695761,,1814,0
1622094456838,695781,,1810,0
1622094456838,695801,,1870,0
1622094457254,695821,,1889,0
1622094457254,695841,,1867,0
1622094457254,695861,,1831,0
1622094457254,695881,,1693,0
1622094457254,695901,,1629,0
1622094457254,695921,,1680,0
1622094457254,695941,,1879,0
1622094457254,695961,,2031,0
1622094457254,695981,,2093,0
1622094457254,696001,,2230,0
1622094457254,696021,,2378,0
1622094457254,696041,,2532,0
1622094457254,696061,,2502,0
1622094457254,696081,,2321,0
1622094457254,696101,,2130,0
1622094457254,696121,,2019,0
1622094457254,696141,,1980,0
1622094457254,696161,,1874,0
1622094457254,696181,,1663,0
1622094457254,696201,,1551,0
1622094457254,696221,,1552,0
1622094457254,696241,,1626,0
1622094457254,696262,,1681,0
1622094457254,696282,,1615,0
1622094457254,696302,,1637,0
1622094458495,697327,,1680,1
1622094458495,697347,,1740,1
1622094458495,697368,,1835,1
1622094458495,697388,,1855,1
1622094458495,697408,,1733,1
1622094458495,697428,,1655,1
1622094458495,697448,,1584,1
1622094458495,697468,,1520,1
1622094458495,697488,,1493,1
1622094458495,697508,,1491,1
1622094458495,697528,,1535,1
1622094458495,697548,,1585,1
1622094458495,697568,,1618,1
1622094458495,697589,,1648,1
1622094458495,697609,,1650,1
1622094458495,697629,,1607,1
1622094458495,697649,,1687,1
1622094458495,697669,,1751,1
1622094458495,697689,,1855,1
1622094458495,697709,,1807,1
1622094458495,697729,,1709,1
1622094458495,697749,,1657,1
1622094458495,697769,,1605,1
1622094458495,697789,,1574,1
1622094458495,697810,,1566,1
1622094458834,697830,,1520,1
1622094458834,697850,,1619,1
1622094458834,697870,,1787,1
1622094458834,697890,,1917,0
1622094458834,697910,,1919,0
1622094458834,697930,,1872,0
1622094458834,697950,,1866,0
1622094458834,697970,,1835,0
1622094458834,697990,,1789,0
1622094458834,698010,,1747,0
1622094458834,698031,,1643,0
1622094458834,698051,,1654,0
1622094458834,698071,,1705,0
1622094458834,698091,,1810,0
1622094458834,698111,,1771,0
1622094458834,698131,,1648,0
1622094458834,698151,,1616,0
1622094458834,698171,,1650,0
1622094458834,698191,,1675,0
1622094458834,698211,,1694,0
1622094458834,698231,,1729,0
1622094458834,698251,,1749,0
1622094458834,698271,,1680,0
1622094458834,698291,,1610,0
1622094458834,698311,,1569,0
1622094459325,698331,,1488,0
1622094459325,698351,,1554,0
1622094459325,698371,,1682,0
1622094459325,698391,,1756,0
1622094459325,698411,,1698,0
1622094459325,698431,,1600,0
1622094459325,698451,,1528,0
1622094459325,698472,,1599,0
1622094459325,698492,,1746,0
1622094459325,698512,,1828,0
1622094459325,698532,,1808,0
1622094459325,698552,,1732,0
1622094459325,698572,,1776,0
1622094459325,698592,,1844,0
1622094459325,698612,,1889,0
1622094459325,698632,,1811,0
1622094459325,698652,,1651,0
1622094459325,698672,,1650,0
1622094459325,698693,,1712,0
1622094459325,698713,,1774,0
1622094459325,698733,,1718,0
1622094459325,698753,,1584,0
1622094459325,698773,,1633,0
1622094459325,698793,,1693,0
1622094459325,698813,,1728,0
1622094459526,698833,,1741,0
1622094459526,698853,,1733,0
1622094459526,698873,,1703,0
1622094459526,698893,,1667,1
1622094459526,698914,,1709,1
1622094459526,698934,,1629,1
1622094459526,698954,,1530,1
1622094459526,698974,,1505,1
1622094459526,698994,,1492,1
1622094459526,699014,,1496,1
1622094459526,699034,,1511,1
1622094459526,699054,,1533,1
1622094459526,699074,,1607,1
1622094459526,699094,,1655,1
1622094459526,699114,,1698,1
1622094459526,699135,,1746,1
1622094459526,699155,,1758,1
1622094459526,699175,,1814,1
1622094459526,699195,,1825,1
1622094459526,699215,,1792,1
1622094459526,699235,,1760,1
1622094459526,699255,,1691,1
1622094459526,699275,,1713,1
1622094459526,699295,,1697,1
1622094459526,699315,,1677,1
1622094460144,699335,,1602,1
1622094460144,699356,,1691,1
1622094460144,699376,,1769,1
1622094460144,699396,,1817,1
1622094460144,699416,,1827,1
1622094460144,699436,,1873,1
1622094460144,699456,,1775,1
1622094460144,699476,,1706,1
1622094460144,699496,,1637,1
1622094460144,699516,,1599,1
1622094460144,699536,,1584,1
1622094460144,699556,,1580,1
1622094460144,699576,,1631,1
1622094460144,699596,,1679,1
1622094460144,699616,,1696,1
1622094460144,699636,,1716,1
1622094460144,699656,,1722,1
1622094460144,699676,,1734,1
1622094460144,699696,,1773,1
1622094460144,699716,,1795,1
1622094460144,699736,,1819,1
1622094460144,699756,,1840,1
1622094460144,699776,,1863,1
1622094460144,699797,,1887,1
1622094460144,699817,,1885,1
1622094460340,699837,,1808,1
1622094460340,699857,,1853,1
1622094460340,699877,,1919,1
1622094460340,699897,,1949,1
1622094460340,699917,,1954,1
1622094460340,699937,,1837,0
1622094460340,699957,,1712,0
1622094460340,699977,,1633,0
1622094460340,699997,,1637,0
1622094460340,700018,,1641,0
1622094460340,700038,,1658,0
1622094460340,700058,,1680,0
1622094460340,700078,,1683,0
1622094460340,700098,,1738,0
1622094460340,700118,,1746,0
1622094460340,700138,,1741,0
1622094460340,700158,,1728,0
1622094460340,700178,,1693,0
1622094460340,700198,,1743,0
1622094460340,700218,,1749,0
1622094460340,700239,,1744,0
1622094460340,700259,,1726,0
1622094460340,700279,,1671,0
1622094460340,700299,,1681,0
1622094460340,700319,,1789,0
1622094461789,701343,,1806,0
1622094461789,701363,,1866,0
1622094461789,701383,,1911,0
1622094461789,701403,,1887,0
1622094461789,701423,,1776,0
1622094461789,701443,,1762,0
1622094461789,701463,,1781,0
1622094461789,701483,,1799,0
1622094461789,701503,,1712,0
1622094461789,701523,,1734,0
1622094461789,701543,,1782,0
1622094461789,701564,,1866,0
1622094461789,701584,,1955,0
1622094461789,701604,,2022,0
1622094461789,701624,,2090,0
1622094461789,701644,,2110,0
1622094461789,701664,,2086,0
1622094461789,701684,,2041,0
1622094461789,701704,,2000,0
1622094461789,701724,,1893,0
1622094461789,701744,,1925,0
1622094461789,701764,,1966,0
1622094461789,701785,,2021,0
1622094461789,701805,,1940,0
1622094461789,701825,,1777,0
1622094462298,701846,,1803,0
1622094462298,701866,,1846,0
1622094462298,701886,,1922,0
1622094462298,701906,,1933,0
1622094462298,701926,,1840,0
1622094462298,701946,,1794,0
1622094462298,701966,,1751,0
1622094462298,701986,,1729,0
1622094462298,702007,,1717,0
1622094462298,702027,,1661,0
1622094462298,702047,,1728,0
1622094462298,702067,,1821,0
1622094462298,702087,,1951,0
1622094462298,702107,,1957,0
1622094462298,702127,,1870,0
1622094462298,702147,,1919,0
1622094462298,702167,,2032,0
1622094462298,702187,,2215,0
1622094462298,702207,,2229,0
1622094462298,702228,,2127,0
1622094462298,702248,,2112,0
1622094462298,702268,,2141,0
1622094462298,702288,,2220,0
1622094462298,702308,,2170,0
1622094462298,702328,,2017,0
1622094462440,702349,,1962,0
1622094462440,702369,,1975,0
1622094462440,702389,,2033,0
1622094462440,702409,,2035,0
1622094462440,702429,,1906,0
1622094462440,702450,,1840,0
1622094462440,702470,,1874,0
1622094462440,702490,,1941,0
1622094462440,702510,,1964,0
1622094462440,702530,,1841,0
1622094462440,702550,,1802,0
1622094462440,702570,,1751,0
1622094462440,702590,,1726,1
1622094462440,702610,,1718,1
1622094462440,702630,,1696,1
1622094462440,702650,,1738,1
1622094462440,702671,,1759,1
1622094462440,702691,,1773,1
1622094462440,702711,,1776,1
1622094462440,702731,,1763,1
1622094462440,702751,,1767,1
1622094462440,702771,,1901,1
1622094462440,702791,,2097,1
1622094462440,702811,,2239,1
1622094462440,702831,,2241,1
1622094462519,703353,,1666,1
1622094462519,703373,,1692,1
1622094462519,703393,,1755,1
1622094462519,703413,,1873,1
1622094462519,703433,,1898,1
1622094462519,703453,,1888,1
1622094462519,703473,,1971,1
1622094462519,703493,,2015,1
1622094462519,703513,,2047,1
1622094462519,703533,,2071,1
1622094462519,703554,,2023,1
1622094462519,703574,,2005,1
1622094462519,703594,,2064,1
1622094462519,703614,,2138,1
1622094462519,703634,,2096,0
1622094462519,703654,,1941,0
1622094462519,703674,,1803,0
1622094462519,703694,,1791,0
1622094462519,703714,,1843,0
1622094462519,703734,,1878,0
1622094462519,703754,,1813,0
1622094462519,703775,,1709,0
1622094462519,703795,,1743,0
1622094462519,703815,,1825,0
1622094462519,703835,,1863,0
1622094462614,703855,,1739,0
1622094462614,703875,,1726,0
1622094462614,703895,,1779,0
1622094462614,703915,,1797,0
1622094462614,703935,,1723,0
1622094462614,703955,,1657,0
1622094462614,703975,,1552,0
1622094462614,703996,,1611,0
1622094462614,704016,,1684,0
1622094462614,704036,,1792,0
1622094462614,704056,,1759,0
1622094462614,704076,,1647,0
1622094462614,704096,,1700,0
1622094462614,704116,,1806,0
1622094462614,704136,,1971,0
1622094462614,704156,,1991,0
1622094462614,704176,,1877,0
1622094462614,704196,,1920,0
1622094462614,704217,,1969,0
1622094462614,704237,,2059,0
1622094462614,704257,,2016,0
1622094462614,704277,,1904,0
1622094462614,704297,,1843,0
1622094462614,704317,,1776,0
1622094462614,704337,,1725,0
1622094462625,704357,,1646,0
1622094462625,704377,,1697,0
1622094462625,704397,,1802,0
1622094462625,704417,,1847,0
1622094462625,704437,,1791,0
1622094462625,704457,,1727,0
1622094462625,704477,,1634,0
1622094462625,704497,,1642,0
1622094462625,704517,,1722,0
1622094462625,704537,,1850,0
1622094462625,704557,,1868,0
1622094462625,704577,,1772,0
1622094462625,704597,,1665,0
1622094462625,704617,,1686,0
1622094462625,704637,,1773,1
1622094462625,704658,,1789,1
1622094462625,704678,,1681,1
1622094462625,704698,,1584,1
1622094462625,704718,,1615,1
1622094462625,704738,,1711,1
1622094462625,704758,,1761,1
1622094462625,704778,,1722,1
1622094462625,704798,,1647,1
1622094462625,704818,,1762,1
1622094462625,704838,,1863,1
1622094462725,705865,,1777,0
1622094462725,705885,,1819,0
1622094462725,705905,,1872,0
1622094462725,705925,,1831,1
1622094462725,705945,,1808,1
1622094462725,705965,,1821,1
1622094462725,705986,,1804,1
1622094462725,706006,,1681,1
1622094462725,706026,,1563,1
1622094462725,706046,,1613,1
1622094462725,706066,,1687,1
1622094462725,706086,,1804,1
1622094462725,706106,,1776,1
1622094462725,706126,,1706,1
1622094462725,706146,,1671,1
1622094462725,706166,,1641,1
1622094462725,706186,,1631,1
1622094462725,706207,,1659,1
1622094462725,706227,,1711,1
1622094462725,706247,,1777,1
1622094462725,706267,,1841,1
1622094462725,706287,,1889,1
1622094462725,706307,,1922,1
1622094462725,706327,,1933,1
1622094462725,706347,,1956,0
1622094462739,706367,,1878,0
1622094462739,706387,,1916,0
1622094462739,706407,,1997,0
1622094462739,706428,,2001,0
1622094462739,706448,,1933,0
1622094462739,706468,,1826,0
1622094462739,706488,,1743,0
1622094462739,706508,,1703,0
1622094462739,706528,,1665,0
1622094462739,706548,,1712,0
1622094462739,706568,,1737,0
1622094462739,706588,,1753,0
1622094462739,706608,,1773,0
1622094462739,706628,,1734,0
1622094462739,706649,,1735,0
1622094462739,706669,,1810,0
1622094462739,706689,,1923,0
1622094462739,706709,,1917,0
1622094462739,706729,,1777,0
1622094462739,706749,,1723,0
1622094462739,706769,,1753,0
1622094462739,706789,,1841,0
1622094462739,706809,,1841,0
1622094462739,706829,,1734,0
1622094462739,706849,,1639,0
1622094462770,707373,,1693,0
1622094462770,707393,,1740,0
1622094462770,707413,,1823,0
1622094462770,707433,,1838,0
1622094462770,707453,,1679,0
1622094462770,707473,,1691,0
1622094462770,707493,,1740,0
1622094462770,707513,,1776,0
1622094462770,707534,,1793,0
1622094462770,707554,,1846,0
1622094462770,707574,,1819,0
1622094462770,707594,,1743,0
1622094462770,707614,,1709,0
1622094462770,707634,,1715,0
1622094462770,707654,,1698,0
1622094462770,707674,,1773,0
1622094462770,707694,,1883,0
1622094462770,707714,,2007,0
1622094462770,707734,,2013,0
1622094462770,707755,,1872,0
1622094462770,707775,,1789,0
1622094462770,707795,,1795,0
1622094462770,707815,,1803,0
1622094462770,707835,,1799,0
1622094462770,707855,,1792,0
1622094463024,707876,,1786,0
1622094463024,707896,,1777,0
1622094463024,707916,,1790,0
1622094463024,707936,,1808,0
1622094463024,707956,,1702,1
1622094463024,707976,,1669,1
1622094463024,707996,,1648,1
1622094463024,708016,,1642,1
1622094463024,708036,,1651,1
1622094463024,708056,,1653,1
1622094463024,708076,,1658,1
1622094463024,708096,,1747,1
1622094463024,708116,,1829,1
1622094463024,708136,,1872,1
1622094463024,708156,,1879,1
1622094463024,708176,,1856,1
1622094463024,708196,,1806,1
1622094463024,708216,,1771,1
1622094463024,708236,,1742,1
1622094463024,708256,,1792,1
1622094463024,708276,,1747,1
1622094463024,708296,,1723,1
1622094463024,708316,,1712,1
1622094463024,708336,,1729,1
1622094463024,708356,,1772,1
1622094463540,708376,,1745,1
1622094463540,708396,,1838,1
1622094463540,708417,,1927,1
1622094463540,708437,,1963,1
1622094463540,708457,,1953,1
1622094463540,708477,,1918,1
1622094463540,708497,,1872,1
1622094463540,708517,,1839,1
1622094463540,708537,,1803,1
1622094463540,708557,,1826,1
1622094463540,708577,,1717,1
1622094463540,708597,,1662,1
1622094463540,708617,,1616,1
1622094463540,708638,,1606,1
1622094463540,708658,,1628,1
1622094463540,708678,,1595,1
1622094463540,708698,,1694,1
1622094463540,708718,,1808,1
1622094463540,708738,,1881,1
1622094463540,708758,,1962,1
1622094463540,708778,,1895,1
1622094463540,708798,,1829,1
1622094463540,708818,,1744,1
1622094463540,708838,,1659,1
1622094463540,708859,,1614,1
1622094464264,708879,,1563,1
1622094464264,708899,,1663,1
1622094464264,708919,,1773,1
1622094464264,708939,,1847,1
1622094464264,708959,,1894,1
1622094464264,708979,,1930,0
1622094464264,708999,,1938,0
1622094464264,709019,,1939,0
1622094464264,709039,,1927,0
1622094464264,709059,,1968,0
1622094464264,709080,,1857,0
1622094464264,709100,,1808,0
1622094464264,709120,,1762,0
1622094464264,709140,,1728,0
1622094464264,709160,,1717,0
1622094464264,709180,,1712,0
1622094464264,709200,,1682,0
1622094464264,709220,,1783,0
1622094464264,709240,,1856,0
1622094464264,709260,,1911,0
1622094464264,709280,,1933,0
1622094464264,709301,,1967,0
1622094464264,709321,,1873,0
1622094464264,709341,,1763,0
1622094464264,709361,,1684,0
1622094464512,709381,,1587,0
1622094464512,709401,,1651,0
1622094464512,709421,,1737,0
1622094464512,709441,,1803,0
1622094464512,709461,,1858,0
1622094464512,709481,,1881,0
1622094464512,709501,,1787,0
1622094464512,709522,,1731,0
1622094464512,709542,,1686,0
1622094464512,709562,,1666,0
1622094464512,709582,,1667,0
1622094464512,709602,,1621,0
1622094464512,709622,,1708,0
1622094464512,709642,,1846,0
1622094464512,709662,,1965,0
1622094464512,709682,,2047,0
1622094464512,709702,,2077,0
1622094464512,709722,,2053,0
1622094464512,709743,,2005,0
1622094464512,709763,,1951,0
1622094464512,709783,,1965,0
1622094464512,709803,,1840,0
1622094464512,709823,,1782,0
1622094464512,709843,,1731,0
1622094464512,709863,,1708,0
1622094465013,709883,,1642,0
1622094465013,709903,,1727,0
1622094465013,709923,,1856,0
1622094465013,709943,,1936,0
1622094465013,709964,,1886,0
1622094465013,709984,,1818,0
1622094465013,710004,,1744,0
1622094465013,710024,,1708,0
1622094465013,710044,,1782,0
1622094465013,710064,,1847,0
1622094465013,710084,,1890,0
1622094465013,710104,,1908,0
1622094465013,710124,,1903,0
1622094465013,710144,,1877,0
1622094465013,710164,,1843,0
1622094465013,710185,,1870,0
1622094465013,710205,,1797,0
1622094465013,710225,,1665,0
1622094465013,710245,,1677,0
1622094465013,710265,,1722,0
1622094465013,710285,,1825,0
1622094465013,710305,,1842,0
1622094465013,710325,,1748,0
1622094465013,710345,,1809,0
1622094465013,710365,,1904,0
1622094465516,710385,,1968,0
1622094465516,710406,,2000,0
1622094465516,710426,,2000,0
1622094465516,710446,,1968,0
1622094465516,710466,,1949,0
1622094465516,710486,,1919,0
1622094465516,710506,,1886,0
1622094465516,710526,,1858,0
1622094465516,710546,,1835,0
1622094465516,710566,,1851,0
1622094465516,710586,,1842,0
1622094465516,710606,,1758,0
1622094465516,710627,,1617,0
1622094465516,710647,,1658,0
1622094465516,710667,,1746,0
1622094465516,710687,,1830,0
1622094465516,710707,,1891,0
1622094465516,710727,,1909,0
1622094465516,710747,,1887,0
1622094465516,710767,,1911,0
1622094465516,710787,,1837,0
1622094465516,710807,,1723,0
1622094465516,710827,,1603,0
1622094465516,710848,,1600,0
1622094465516,710868,,1693,0
1622094466019,710888,,1787,0
1622094466019,710908,,1844,0
1622094466019,710928,,1882,0
1622094466019,710948,,1897,1
1622094466019,710968,,1903,1
1622094466019,710988,,1983,0
1622094466019,711008,,1946,0
1622094466019,711029,,1841,0
1622094466019,711049,,1826,0
1622094466019,711070,,1910,0
1622094466019,711090,,1989,0
1622094466019,711110,,2024,0
1622094466019,711130,,2035,0
1622094466019,711150,,2015,0
1622094466019,711170,,1968,0
1622094466019,711190,,1933,0
1622094466019,711210,,1938,0
1622094466019,711230,,1883,0
1622094466019,711250,,1742,0
1622094466019,711270,,1744,0
1622094466019,711291,,1790,0
1622094466019,711311,,1825,0
1622094466019,711331,,1853,0
1622094466019,711351,,1867,0
1622094466019,711371,,1872,0
1622094466520,711391,,1859,0
1622094466520,711411,,1846,0
1622094466520,711431,,1834,0
1622094466520,711451,,1819,0
1622094466520,711471,,1803,0
1622094466520,711491,,1791,0
1622094466520,711511,,1783,0
1622094466520,711531,,1791,0
1622094466520,711551,,1831,0
1622094466520,711571,,1823,0
1622094466520,711591,,1744,0
1622094466520,711611,,1698,0
1622094466520,711631,,1710,0
1622094466520,711651,,1712,0
1622094466520,711671,,1840,0
1622094466520,711691,,2014,0
1622094466520,711711,,2134,0
1622094466520,711732,,2186,0
1622094466520,711752,,2165,0
1622094466520,711772,,2122,0
1622094466520,711792,,2096,0
1622094466520,711812,,2059,0
1622094466520,711832,,1919,0
1622094466520,711852,,1757,0
1622094466520,711872,,1718,0
1622094467024,711892,,1781,0
1622094467024,711912,,1843,0
1622094467024,711932,,1892,0
1622094467024,711953,,1919,0
1622094467024,711973,,1943,0
1622094467024,711993,,1964,0
1622094467024,712013,,1865,0
1622094467024,712033,,1769,0
1622094467024,712053,,1676,0
1622094467024,712073,,1661,0
1622094467024,712093,,1743,0
1622094467024,712113,,1826,0
1622094467024,712133,,1885,0
1622094467024,712153,,1904,0
1622094467024,712173,,1893,0
1622094467024,712193,,1888,0
1622094467024,712213,,1876,0
1622094467024,712233,,1765,0
1622094467024,712253,,1661,0
1622094467024,712273,,1582,0
1622094467024,712293,,1658,0
1622094467024,712313,,1776,0
1622094467024,712333,,1895,0
1622094467024,712353,,1982,0
1622094467024,712373,,2079,0
1622094467557,712393,,1974,0
1622094467557,712413,,1951,0
1622094467557,712433,,1990,0
1622094467557,712453,,2026,0
1622094467557,712473,,1946,0
1622094467557,712493,,1911,0
1622094467557,712513,,1867,0
1622094467557,712533,,1840,0
1622094467557,712553,,1826,0
1622094467557,712573,,1751,0
1622094467557,712593,,1791,0
1622094467557,712614,,1904,0
1622094467557,712634,,1955,0
1622094467557,712654,,2013,0
1622094467557,712674,,1975,0
1622094467557,712694,,1903,0
1622094467557,712714,,1804,0
1622094467557,712734,,1726,0
1622094467557,712754,,1695,0
1622094467557,712774,,1629,0
1622094467557,712794,,1675,0
1622094467557,712814,,1781,0
1622094467557,712835,,1858,0
1622094467557,712855,,1933,0
1622094467557,712875,,1873,0
1622094468276,712895,,1762,0
1622094468276,712915,,1749,0
1622094468276,712935,,1767,0
1622094468276,712955,,1777,0
1622094468276,712975,,1810,0
1622094468276,712995,,1805,0
1622094468276,713015,,1745,0
1622094468276,713035,,1708,0
1622094468276,713056,,1723,0
1622094468276,713076,,1734,0
1622094468276,713096,,1790,0
1622094468276,713116,,1907,0
1622094468276,713136,,2037,0
1622094468276,713156,,2085,0
1622094468276,713176,,2112,0
1622094468276,713196,,2042,0
1622094468276,713216,,1934,0
1622094468276,713236,,1838,0
1622094468276,713256,,1770,0
1622094468276,713277,,1729,0
1622094468276,713297,,1690,0
1622094468276,713317,,1771,0
1622094468276,713337,,1883,0
1622094468276,713357,,1933,0
1622094468276,713377,,2004,0
1622094468742,713398,,1890,0
1622094468742,713418,,1847,0
1622094468742,713438,,1867,0
1622094468742,713458,,1861,0
1622094468742,713478,,1791,0
1622094468742,713498,,1722,0
1622094468742,713518,,1697,0
1622094468742,713538,,1680,0
1622094468742,713558,,1678,0
1622094468742,713578,,1691,0
1622094468742,713598,,1655,0
1622094468742,713618,,1732,0
1622094468742,713638,,1808,0
1622094468742,713658,,1892,0
1622094468742,713678,,1924,0
1622094468742,713698,,1904,0
1622094468742,713719,,1865,0
1622094468742,713739,,1826,0
1622094468742,713759,,1851,0
1622094468742,713779,,1842,0
1622094468742,713799,,1774,0
1622094468742,713819,,1803,0
1622094468742,713839,,1818,0
1622094468742,713859,,1834,0
1622094468742,713879,,1852,0
1622094469090,713899,,1811,0
1622094469090,713919,,1879,0
1622094469090,713940,,1969,0
1622094469090,713960,,2004,0
1622094469090,713980,,2031,0
1622094469090,714000,,1986,0
1622094469090,714020,,1861,0
1622094469090,714040,,1829,0
1622094469090,714060,,1818,0
1622094469090,714080,,1836,0
1622094469090,714100,,1837,0
1622094469090,714120,,1791,0
1622094469090,714140,,1720,0
1622094469090,714161,,1667,0
1622094469090,714181,,1648,0
1622094469090,714201,,1627,0
1622094469090,714221,,1631,0
1622094469090,714241,,1741,0
1622094469090,714261,,1840,0
1622094469090,714281,,1904,0
1622094469090,714301,,1917,0
1622094469090,714321,,1904,0
1622094469090,714341,,1862,0
1622094469090,714361,,1885,0
1622094469090,714382,,1816,0
1622094469573,714402,,1657,0
1622094469573,714422,,1662,0
1622094469573,714442,,1754,0
1622094469573,714462,,1857,0
1622094469573,714482,,1865,0
1622094469573,714502,,1859,0
1622094469573,714522,,1805,0
1622094469573,714542,,1869,0
1622094469573,714562,,1968,0
1622094469573,714582,,2026,0
1622094469573,714603,,2096,0
1622094469573,714623,,2010,0
1622094469573,714643,,1904,0
1622094469573,714663,,1802,0
1622094469573,714683,,1728,0
1622094469573,714703,,1695,0
1622094469573,714723,,1640,0
1622094469573,714743,,1718,0
1622094469573,714763,,1833,0
1622094469573,714783,,1973,0
1622094469573,714803,,1962,0
1622094469573,714824,,1815,0
1622094469573,714844,,1787,0
1622094469573,714864,,1818,0
1622094469573,714884,,1859,0
1622094470152,714904,,1872,0
1622094470152,714924,,1857,0
1622094470152,714944,,1819,0
1622094470152,714964,,1783,1
1622094470152,714984,,1763,1
1622094470152,715004,,1744,1
1622094470152,715024,,1743,1
1622094470152,715045,,1737,1
1622094470152,715065,,1791,1
1622094470152,715085,,1744,1
1622094470152,715105,,1674,1
1622094470152,715125,,1591,1
1622094470152,715145,,1622,1
1622094470152,715165,,1745,1
1622094470152,715185,,1897,1
1622094470152,715205,,1993,1
1622094470152,715225,,2058,1
1622094470152,715245,,2071,1
1622094470152,715265,,2114,1
1622094470152,715285,,2031,1
1622094470152,715305,,1911,1
1622094470152,715325,,1808,1
1622094470152,715345,,1723,1
1622094470152,715365,,1778,1
1622094470152,715385,,1879,1
1622094470638,715405,,1935,1
1622094470638,715425,,1965,1
1622094470638,715445,,1962,1
1622094470638,715465,,1999,1
1622094470638,715486,,1909,1
1622094470638,715506,,1799,1
1622094470638,715526,,1721,1
1622094470638,715546,,1631,1
1622094470638,715566,,1696,1
1622094470638,715586,,1790,1
1622094470638,715606,,1850,1
1622094470638,715626,,1875,1
1622094470638,715646,,1883,1
1622094470638,715666,,1869,1
1622094470638,715686,,1843,1
1622094470638,715707,,1810,1
1622094470638,715727,,1779,1
1622094470638,715747,,1755,1
1622094470638,715767,,1794,1
1622094470638,715787,,1762,1
1622094470638,715807,,1696,1
1622094470638,715827,,1681,1
1622094470638,715847,,1659,1
1622094470638,715867,,1769,1
1622094470638,715887,,1931,1
1622094471450,715908,,2041,1
1622094471450,715929,,2106,1
1622094471450,715949,,2097,1
1622094471450,715969,,2064,1
1622094471450,715989,,2017,1
1622094471450,716009,,1989,1
1622094471450,716029,,1947,1
1622094471450,716049,,1905,1
1622094471450,716069,,1937,1
1622094471450,716089,,1859,1
1622094471450,716109,,1769,1
1622094471450,716129,,1718,1
1622094471450,716150,,1658,1
1622094471450,716170,,1693,1
1622094471450,716190,,1798,1
1622094471450,716210,,1875,1
1622094471450,716230,,1913,1
1622094471450,716250,,1936,1
1622094471450,716270,,1909,1
1622094471450,716290,,1811,1
1622094471450,716310,,1726,1
1622094471450,716330,,1678,1
1622094471450,716350,,1654,1
1622094471450,716371,,1622,1
1622094471450,716391,,1712,1
1622094471559,716411,,1807,1
1622094471559,716431,,1858,1
1622094471559,716451,,1880,1
1622094471559,716471,,1942,1
1622094471559,716491,,1910,1
1622094471559,716511,,1847,1
1622094471559,716531,,1822,1
1622094471559,716551,,1835,1
1622094471559,716571,,1807,1
1622094471559,716592,,1916,1
1622094471559,716612,,2013,1
1622094471559,716632,,2080,1
1622094471559,716652,,2122,1
1622094471559,716672,,2122,1
1622094471559,716692,,2025,1
1622094471559,716712,,1903,1
1622094471559,716732,,1801,1
1622094471559,716752,,1747,1
1622094471559,716772,,1664,1
1622094471559,716792,,1715,1
1622094471559,716813,,1809,1
1622094471559,716833,,1891,1
1622094471559,716853,,1922,1
1622094471559,716873,,1923,1
1622094471559,716893,,1907,1
1622094472064,716913,,1869,1
1622094472064,716933,,1831,1
1622094472064,716953,,1791,1
1622094472064,716973,,1753,1
1622094472064,716993,,1737,1
1622094472064,717013,,1729,1
1622094472064,717033,,1722,1
1622094472064,717053,,1720,1
1622094472064,717073,,1731,1
1622094472064,717093,,1744,1
1622094472064,717113,,1757,1
