localTime,remoteTime,label,bvp,signalOK
1622094380604,312684,,1622,1
1622094380604,312704,,1728,1
1622094380604,312725,,1847,1
1622094380604,312745,,1920,1
1622094380604,312765,,1822,1
1622094380604,312786,,1747,1
1622094380604,312807,,1648,1
1622094380604,312828,,1574,1
1622094380604,312849,,1525,1
1622094380604,312870,,1495,1
1622094380604,312891,,1513,1
1622094380604,312912,,1502,1
1622094380604,312933,,1501,1
1622094380604,312954,,1571,1
1622094380604,312974,,1739,1
1622094380604,312995,,2007,1
1622094380604,313016,,2300,1
1622094380604,313037,,2528,1
1622094380604,313058,,2667,1
1622094380604,313078,,2703,1
1622094380604,313099,,2673,1
1622094380604,313120,,2553,1
1622094380604,313141,,2412,1
1622094380604,313162,,2242,0
1622094380604,313182,,2140,0
1622094381001,313202,,1926,0
1622094381001,313222,,2030,0
1622094381001,313243,,2055,0
1622094381001,313264,,2099,0
1622094381001,313285,,2023,0
1622094381001,313306,,1903,0
1622094381001,313327,,1783,0
1622094381001,313348,,1699,0
1622094381001,313369,,1673,0
1622094381001,313390,,1847,0
1622094381001,313411,,1798,0
1622094381001,313431,,1535,0
1622094381001,313452,,1280,0
1622094381001,313473,,1200,0
1622094381001,313493,,1392,0
1622094381001,313514,,1600,0
1622094381001,313534,,1744,0
1622094381001,313555,,1799,0
1622094381001,313576,,1808,0
1622094381001,313596,,1994,0
1622094381001,313617,,2258,0
1622094381001,313638,,2554,0
1622094381001,313658,,2787,0
1622094381001,313678,,2849,0
1622094381001,313698,,2871,0
1622094381276,313719,,2693,0
1622094381276,313739,,2602,0
1622094381276,313760,,2510,0
1622094381276,313781,,2429,0
1622094381276,313801,,2318,0
1622094381276,313822,,2126,0
1622094381276,313843,,1936,0
1622094381276,313864,,1792,0
1622094381276,313884,,1677,0
1622094381276,313905,,1698,0
1622094381276,313926,,1692,0
1622094381276,313947,,1680,0
1622094381276,313968,,1678,0
1622094381276,313989,,1635,0
1622094381276,314010,,1675,0
1622094381276,314031,,1666,0
1622094381276,314052,,1649,0
1622094381276,314073,,1618,0
1622094381276,314094,,1587,0
1622094381276,314114,,1621,0
1622094381276,314135,,1616,0
1622094381276,314156,,1595,0
1622094381276,314177,,1566,0
1622094381276,314198,,1553,0
1622094381276,314219,,1668,0
1622094381405,314240,,1811,0
1622094381405,314260,,2160,0
1622094381405,314281,,2479,0
1622094381405,314301,,2752,0
1622094381405,314321,,2813,0
1622094381405,314341,,2709,0
1622094381405,314362,,2559,0
1622094381405,314383,,2424,0
1622094381405,314404,,2285,0
1622094381405,314425,,2192,0
1622094381405,314446,,2064,0
1622094381405,314467,,1938,0
1622094381405,314488,,1831,0
1622094381405,314509,,1759,0
1622094381405,314530,,1758,0
1622094381405,314551,,1745,0
1622094381405,314571,,1739,0
1622094381405,314591,,1744,0
1622094381405,314611,,1743,0
1622094381405,314632,,1766,0
1622094381405,314653,,1760,0
1622094381405,314674,,1749,0
1622094381405,314695,,1742,0
1622094381405,314716,,1737,0
1622094381405,314737,,1733,0
1622094381616,314758,,1646,0
1622094381616,314778,,1702,0
1622094381616,314798,,1777,0
1622094381616,314818,,1887,0
1622094381616,314839,,2057,0
1622094381616,314860,,2320,0
1622094381616,314881,,2521,0
1622094381616,314901,,2604,0
1622094381616,314921,,2628,0
1622094381616,314942,,2642,0
1622094381616,314963,,2634,0
1622094381616,314983,,2559,0
1622094381616,315004,,2463,0
1622094381616,315024,,2342,0
1622094381616,315044,,2205,0
1622094381616,315065,,2039,0
1622094381616,315086,,1882,0
1622094381616,315107,,1773,0
1622094381616,315127,,1627,0
1622094381616,315148,,1677,0
1622094381616,315169,,1755,0
1622094381616,315190,,1810,0
1622094381616,315211,,1840,0
1622094381616,315231,,1879,0
1622094381616,315251,,1759,0
1622094381637,315271,,1557,0
1622094381637,315291,,1511,0
1622094381637,315312,,1552,0
1622094381637,315333,,1601,0
1622094381637,315354,,1535,0
1622094381637,315375,,1453,0
1622094381637,315396,,1407,0
1622094381637,315417,,1389,0
1622094381637,315438,,1423,0
1622094381637,315459,,1455,0
1622094381637,315479,,1525,0
1622094381637,315499,,1689,0
1622094381637,315520,,1923,0
1622094381637,315541,,2275,0
1622094381637,315562,,2543,0
1622094381637,315582,,2719,0
1622094381637,315602,,2773,0
1622094381637,315623,,2707,0
1622094381637,315644,,2658,0
1622094381637,315665,,2528,0
1622094381637,315686,,2389,0
1622094381637,315706,,2251,0
1622094381637,315727,,2059,0
1622094381637,315747,,1988,0
1622094381637,315768,,1899,0
1622094381654,315789,,1766,0
1622094381654,315809,,1810,0
1622094381654,315830,,1900,0
1622094381654,315851,,1974,0
1622094381654,315872,,1893,0
1622094381654,315893,,1786,0
1622094381654,315914,,1699,1
1622094381654,315934,,1621,1
1622094381654,315955,,1653,1
1622094381654,315976,,1645,1
1622094381654,315997,,1631,1
1622094381654,316018,,1621,1
1622094381654,316039,,1602,1
1622094381654,316060,,1653,1
1622094381654,316081,,1655,1
1622094381654,316102,,1635,1
1622094381654,316123,,1632,1
1622094381654,316144,,1689,1
1622094381654,316164,,1901,1
1622094381654,316185,,2145,1
1622094381654,316206,,2401,1
1622094381654,316227,,2602,1
1622094381654,316247,,2685,1
1622094381654,316267,,2720,1
1622094381654,316288,,2643,1
1622094381670,316309,,2461,1
1622094381670,316329,,2394,1
1622094381670,316350,,2371,1
1622094381670,316371,,2320,1
1622094381670,316391,,2139,1
1622094381670,316411,,1979,1
1622094381670,316432,,1887,1
1622094381670,316453,,1858,1
1622094381670,316474,,1949,1
1622094381670,316495,,2060,1
1622094381670,316516,,2123,1
1622094381670,316537,,2096,1
1622094381670,316557,,2028,1
1622094381670,316578,,2054,1
1622094381670,316599,,2112,1
1622094381670,316619,,2155,1
1622094381670,316639,,2135,1
1622094381670,316659,,2064,1
1622094381670,316680,,1979,1
1622094381670,316701,,1839,1
1622094381670,316722,,1691,1
1622094381670,316743,,1579,1
1622094381670,316764,,1552,1
1622094381670,316785,,1653,1
1622094381670,316806,,1825,1
1622094381674,316827,,1984,1
1622094381674,316847,,2245,1
1622094381674,316867,,2519,1
1622094381674,316887,,2653,1
1622094381674,316907,,2559,1
1622094381674,316928,,2413,1
1622094381674,316949,,2224,1
1622094381674,316969,,2064,1
1622094381674,316990,,1939,1
1622094381674,317011,,1841,1
1622094381674,317032,,1787,1
1622094381674,317053,,1786,1
1622094381674,317073,,1840,1
1622094381674,317094,,1903,1
1622094381674,317115,,1936,1
1622094381674,317136,,1962,1
1622094381674,317157,,1957,1
1622094381674,317177,,1966,1
1622094381674,317198,,1936,1
1622094381674,317219,,1871,1
1622094381674,317240,,1809,1
1622094381674,317261,,1719,1
1622094381674,317281,,1724,1
1622094381674,317301,,1703,1
1622094381674,317322,,1686,1
1622094381687,317343,,1656,1
1622094381687,317363,,1834,1
1622094381687,317384,,2143,1
1622094381687,317405,,2464,1
1622094381687,317425,,2624,1
1622094381687,317445,,2702,1
1622094381687,317466,,2679,1
1622094381687,317486,,2624,1
1622094381687,317507,,2613,1
1622094381687,317527,,2586,1
1622094381687,317548,,2451,1
1622094381687,317569,,2165,1
1622094381687,317590,,1930,1
1622094381687,317611,,1868,1
1622094381687,317632,,1919,1
1622094381687,317653,,1921,1
1622094381687,317674,,1834,1
1622094381687,317694,,1808,1
1622094381687,317715,,1881,1
1622094381687,317736,,1987,1
1622094381687,317756,,1977,1
1622094381687,317777,,1834,1
1622094381687,317798,,1764,1
1622094381687,317819,,1684,1
1622094381687,317840,,1631,1
1622094381694,317860,,1535,1
1622094381694,317880,,1615,1
1622094381694,317901,,1773,1
1622094381694,317922,,2014,1
1622094381694,317943,,2176,1
1622094381694,317964,,2352,1
1622094381694,317984,,2481,1
1622094381694,318004,,2638,1
1622094381694,318024,,2653,1
1622094381694,318045,,2591,1
1622094381694,318066,,2468,1
1622094381694,318087,,2310,1
1622094381694,318108,,2211,1
1622094381694,318129,,2073,1
1622094381694,318150,,1952,1
1622094381694,318171,,1861,1
1622094381694,318192,,1801,1
1622094381694,318212,,1822,1
1622094381694,318233,,1823,1
1622094381694,318254,,1819,1
1622094381694,318275,,1808,1
1622094381694,318296,,1745,1
1622094381694,318317,,1821,1
1622094381694,318338,,1905,1
1622094381694,318359,,1994,1
1622094381705,318380,,1823,1
1622094381705,318400,,1744,1
1622094381705,318421,,1731,1
1622094381705,318441,,1719,1
1622094381705,318462,,1616,1
1622094381705,318483,,1535,1
1622094381705,318504,,1533,1
1622094381705,318525,,1807,1
1622094381705,318546,,2147,1
1622094381705,318567,,2539,1
1622094381705,318587,,2725,1
1622094381705,318608,,2755,1
1622094381705,318629,,2879,1
1622094381705,318650,,2897,1
1622094381705,318670,,2855,1
1622094381705,318690,,2614,1
1622094381705,318710,,2271,1
1622094381705,318731,,2000,1
1622094381705,318752,,1792,1
1622094381705,318773,,1675,1
1622094381705,318794,,1623,1
1622094381705,318815,,1658,1
1622094381705,318836,,1698,1
1622094381705,318857,,1697,1
1622094381705,318878,,1673,1
1622094381741,319416,,2000,1
1622094381741,319436,,1895,1
1622094381741,319457,,1833,1
1622094381741,319478,,1849,1
1622094381741,319499,,1787,1
1622094381741,319520,,1680,1
1622094381741,319541,,1701,1
1622094381741,319562,,1717,1
1622094381741,319582,,1743,1
1622094381741,319602,,1745,1
1622094381741,319623,,1715,1
1622094381741,319644,,1747,1
1622094381741,319665,,1727,1
1622094381741,319686,,1680,1
1622094381741,319707,,1628,1
1622094381741,319728,,1561,1
1622094381741,319749,,1535,1
1622094381741,319770,,1503,1
1622094381741,319791,,1483,1
1622094381741,319811,,1490,1
1622094381741,319832,,1499,1
1622094381741,319853,,1562,1
1622094381741,319874,,1605,1
1622094381741,319895,,1648,1
1622094381741,319916,,1694,1
1622094381771,320453,,1677,0
1622094381771,320473,,1687,0
1622094381771,320493,,1719,0
1622094381771,320514,,1795,0
1622094381771,320535,,1712,0
1622094381771,320555,,1573,0
1622094381771,320576,,1581,0
1622094381771,320597,,1616,0
1622094381771,320617,,1706,0
1622094381771,320638,,1646,0
1622094381771,320659,,1600,0
1622094381771,320680,,1571,0
1622094381771,320701,,1535,0
1622094381771,320721,,1535,0
1622094381771,320741,,1573,0
1622094381771,320761,,1698,0
1622094381771,320781,,1867,0
1622094381771,320802,,2033,0
1622094381771,320823,,2192,0
1622094381771,320844,,2286,0
1622094381771,320864,,2304,0
1622094381771,320885,,2402,0
1622094381771,320906,,2473,0
1622094381771,320927,,2426,0
1622094381771,320947,,2205,0
1622094382127,320967,,1913,0
1622094382127,320987,,1968,0
1622094382127,321008,,1920,0
1622094382127,321029,,1888,1
1622094382127,321050,,1724,1
1622094382127,321070,,1584,1
1622094382127,321091,,1586,1
1622094382127,321112,,1641,1
1622094382127,321133,,1685,1
1622094382127,321154,,1710,1
1622094382127,321174,,1742,1
1622094382127,321195,,1771,1
1622094382127,321216,,1679,1
1622094382127,321237,,1600,1
1622094382127,321258,,1511,1
1622094382127,321278,,1535,1
1622094382127,321299,,1680,1
1622094382127,321320,,1813,1
1622094382127,321341,,1918,1
1622094382127,321362,,1799,1
1622094382127,321383,,1730,1
1622094382127,321403,,1625,1
1622094382127,321423,,1533,1
1622094382127,321444,,1462,1
1622094382127,321465,,1376,1
1622094382649,321485,,1432,1
1622094382649,321505,,1625,1
1622094382649,321525,,1796,1
1622094382649,321546,,1983,1
1622094382649,321567,,2106,1
1622094382649,321588,,2224,1
1622094382649,321609,,2224,1
1622094382649,321629,,2085,1
1622094382649,321650,,1962,1
1622094382649,321671,,1842,1
1622094382649,321692,,1914,1
1622094382649,321713,,2034,1
1622094382649,321734,,2141,1
1622094382649,321755,,2167,1
1622094382649,321776,,2105,1
1622094382649,321797,,2046,1
1622094382649,321818,,1854,1
1622094382649,321839,,1667,1
1622094382649,321859,,1535,1
1622094382649,321880,,1424,1
1622094382649,321901,,1487,1
1622094382649,321922,,1595,1
1622094382649,321943,,1655,1
1622094382649,321964,,1661,1
1622094382649,321985,,1590,1
1622094383467,322006,,1509,0
1622094383467,322026,,1398,0
1622094383467,322047,,1360,0
1622094383467,322068,,1347,0
1622094383467,322088,,1201,0
1622094383467,322109,,1226,0
1622094383467,322130,,1294,0
1622094383467,322151,,1408,0
1622094383467,322172,,1333,0
1622094383467,322192,,1194,0
1622094383467,322213,,1271,0
1622094383467,322234,,1446,0
1622094383467,322255,,1618,0
1622094383467,322276,,1776,0
1622094383467,322296,,1872,0
1622094383467,322316,,1803,0
1622094383467,322337,,1680,0
1622094383467,322358,,1528,0
1622094383467,322379,,1344,0
1622094383467,322399,,1154,0
1622094383467,322420,,1181,0
1622094383467,322441,,1344,0
1622094383467,322462,,1584,0
1622094383467,322483,,1669,0
1622094383467,322504,,1856,0
1622094383950,322525,,1991,0
1622094383950,322545,,2270,0
1622094383950,322565,,2452,0
1622094383950,322585,,2641,0
1622094383950,322606,,2601,0
1622094383950,322627,,2337,0
1622094383950,322648,,1883,0
1622094383950,322669,,1301,0
1622094383950,322690,,718,0
1622094383950,322710,,314,0
1622094383950,322731,,326,0
1622094383950,322752,,464,0
1622094383950,322772,,689,0
1622094383950,322792,,944,0
1622094383950,322812,,1163,0
1622094383950,322833,,1312,0
1622094383950,322854,,1423,0
1622094383950,322875,,1520,0
1622094383950,322896,,1610,0
1622094383950,322917,,1773,0
1622094383950,322938,,2054,0
1622094383950,322959,,2165,0
1622094383950,322980,,2041,0
1622094383950,323000,,1686,0
1622094383950,323021,,1214,0
1622094384819,323041,,702,0
1622094384819,323061,,560,0
1622094384819,323082,,657,0
1622094384819,323103,,879,0
1622094384819,323124,,1073,0
1622094384819,323145,,1435,0
1622094384819,323166,,1758,0
1622094384819,323187,,1820,0
1622094384819,323208,,1343,0
1622094384819,323228,,801,0
1622094384819,323249,,409,0
1622094384819,323270,,367,0
1622094384819,323291,,711,0
1622094384819,323312,,1223,0
1622094384819,323333,,1840,0
1622094384819,323354,,2275,0
1622094384819,323375,,2516,0
1622094384819,323395,,2639,0
1622094384819,323416,,2383,0
1622094384819,323437,,2199,0
1622094384819,323457,,2086,0
1622094384819,323478,,1945,0
1622094384819,323499,,1778,0
1622094384819,323520,,1719,0
1622094384819,323541,,1698,0
1622094384989,323561,,1580,0
1622094384989,323581,,1490,1
1622094384989,323602,,1535,1
1622094384989,323623,,1651,1
1622094384989,323644,,1489,1
1622094384989,323665,,1392,1
1622094384989,323685,,1423,1
1622094384989,323706,,1270,1
1622094384989,323727,,893,1
1622094384989,323747,,863,1
1622094384989,323768,,867,1
1622094384989,323789,,495,1
1622094384989,323810,,139,1
1622094384989,323830,,128,1
1622094384989,323851,,511,1
1622094384989,323872,,929,1
1622094384989,323893,,1310,1
1622094384989,323913,,1520,1
1622094384989,323933,,1470,1
1622094384989,323954,,1455,1
1622094384989,323975,,1523,1
1622094384989,323996,,1714,1
1622094384989,324017,,2034,1
1622094384989,324038,,2601,1
1622094384989,324059,,2999,1
1622094385949,324079,,3081,1
1622094385949,324099,,2943,1
1622094385949,324119,,2749,1
1622094385949,324139,,2426,1
1622094385949,324160,,1781,1
1622094385949,324181,,1249,1
1622094385949,324202,,847,1
1622094385949,324223,,459,1
1622094385949,324244,,0,1
1622094385949,324265,,0,1
1622094385949,324286,,0,1
1622094385949,324307,,0,1
1622094385949,324328,,0,1
1622094385949,324348,,0,1
1622094385949,324368,,0,1
1622094385949,324389,,54,1
1622094385949,324410,,1081,1
1622094385949,324430,,1879,1
1622094385949,324450,,2331,1
1622094385949,324471,,2372,1
1622094385949,324492,,2224,1
1622094385949,324513,,2063,1
1622094385949,324534,,1963,1
1622094385949,324555,,2078,1
1622094385949,324575,,2459,1
1622094386032,324595,,2800,1
1622094386032,324615,,2908,1
1622094386032,324636,,2767,1
1622094386032,324657,,2523,1
1622094386032,324678,,2352,1
1622094386032,324699,,2208,1
1622094386032,324720,,2209,1
1622094386032,324741,,2223,1
1622094386032,324762,,2389,1
1622094386032,324783,,2503,1
1622094386032,324804,,2657,1
1622094386032,324824,,2790,1
1622094386032,324845,,2805,1
1622094386032,324866,,2832,1
1622094386032,324887,,2783,1
1622094386032,324908,,2554,1
1622094386032,324929,,2147,1
1622094386032,324949,,1628,1
1622094386032,324970,,1174,1
1622094386032,324991,,899,1
1622094386032,325012,,881,1
1622094386032,325032,,1045,1
1622094386032,325052,,1133,1
1622094386032,325073,,1334,1
1622094386032,325094,,1531,1
1622094386344,325115,,1639,1
1622094386344,325135,,1825,1
1622094386344,325156,,1963,1
1622094386344,325177,,2047,1
1622094386344,325198,,1995,1
1622094386344,325219,,2003,1
1622094386344,325240,,2103,1
1622094386344,325260,,2189,1
1622094386344,325280,,2401,0
1622094386344,325300,,2671,0
1622094386344,325321,,2765,0
1622094386344,325342,,2699,0
1622094386344,325363,,2590,0
1622094386344,325384,,2347,0
1622094386344,325405,,2070,0
1622094386344,325426,,1881,0
1622094386344,325447,,1814,0
1622094386344,325468,,1815,0
1622094386344,325489,,2057,0
1622094386344,325509,,2333,0
1622094386344,325530,,2557,0
1622094386344,325551,,2736,0
1622094386344,325572,,2800,0
1622094386344,325593,,2817,0
1622094386344,325614,,2678,0
1622094386888,325634,,2365,0
1622094386888,325654,,2198,0
1622094386888,325675,,2071,0
1622094386888,325696,,2021,0
1622094386888,325717,,1893,0
1622094386888,325737,,1815,0
1622094386888,325758,,1757,0
1622094386888,325779,,1667,0
1622094386888,325800,,1710,0
1622094386888,325821,,1808,0
1622094386888,325842,,1918,0
1622094386888,325863,,2057,0
1622094386888,325883,,2214,0
1622094386888,325904,,2388,0
1622094386888,325925,,2671,0
1622094386888,325946,,3051,0
1622094386888,325966,,3212,0
1622094386888,325986,,3299,0
1622094386888,326007,,3372,0
1622094386888,326027,,3279,0
1622094386888,326047,,3010,0
1622094386888,326068,,2723,0
1622094386888,326088,,2501,0
1622094386888,326109,,2370,0
1622094386888,326130,,2194,0
1622094387374,326151,,2025,0
1622094387374,326171,,2018,0
1622094387374,326191,,2044,0
1622094387374,326212,,1987,0
1622094387374,326233,,1736,0
1622094387374,326254,,1490,0
1622094387374,326275,,1283,0
1622094387374,326296,,1270,0
1622094387374,326317,,1419,0
1622094387374,326338,,1595,0
1622094387374,326359,,1762,0
1622094387374,326380,,1872,0
1622094387374,326401,,2000,0
1622094387374,326421,,1939,0
1622094387374,326442,,1801,0
1622094387374,326463,,1660,0
1622094387374,326484,,1523,0
1622094387374,326505,,1634,0
1622094387374,326525,,1855,0
1622094387374,326546,,2139,0
1622094387374,326567,,2375,0
1622094387374,326588,,2577,0
1622094387374,326609,,2682,0
1622094387374,326630,,2675,0
1622094387374,326650,,2623,0
1622094387830,326671,,2286,0
1622094387830,326691,,2083,0
1622094387830,326712,,1914,0
1622094387830,326732,,1836,0
1622094387830,326753,,1616,0
1622094387830,326774,,1449,0
1622094387830,326795,,1349,0
1622094387830,326816,,1489,0
1622094387830,326837,,1712,0
1622094387830,326858,,1892,0
1622094387830,326878,,2032,0
1622094387830,326899,,2123,0
1622094387830,326920,,2134,0
1622094387830,326941,,2114,0
1622094387830,326962,,2030,0
1622094387830,326983,,1910,0
1622094387830,327003,,1809,0
1622094387830,327024,,1773,0
1622094387830,327045,,1840,0
1622094387830,327066,,1968,0
1622094387830,327087,,2112,0
1622094387830,327107,,2224,0
1622094387830,327128,,2282,0
1622094387830,327148,,2346,0
1622094387830,327169,,2334,0
1622094388353,327189,,2249,0
1622094388353,327209,,2125,0
1622094388353,327230,,2013,0
1622094388353,327251,,1904,0
1622094388353,327272,,1707,0
1622094388353,327293,,1521,0
1622094388353,327314,,1417,0
1622094388353,327334,,1482,0
1622094388353,327354,,1584,0
1622094388353,327375,,1622,0
1622094388353,327396,,1524,0
1622094388353,327416,,1456,0
1622094388353,327437,,1579,0
1622094388353,327458,,1723,0
1622094388353,327479,,1857,0
1622094388353,327500,,1942,0
1622094388353,327521,,1970,0
1622094388353,327542,,2006,0
1622094388353,327562,,1988,0
1622094388353,327583,,1937,0
1622094388353,327604,,1936,0
1622094388353,327625,,2082,0
1622094388353,327646,,2304,0
1622094388353,327667,,2548,1
1622094388353,327688,,2663,1
1622094389096,327708,,2652,1
1622094389096,327728,,2559,1
1622094389096,327749,,2402,1
1622094389096,327770,,2227,1
1622094389096,327790,,2063,1
1622094389096,327811,,1936,1
1622094389096,327832,,1826,1
1622094389096,327853,,1734,1
1622094389096,327874,,1711,1
1622094389096,327895,,1754,1
1622094389096,327916,,1763,1
1622094389096,327937,,1861,1
1622094389096,327958,,1957,1
1622094389096,327978,,1980,1
1622094389096,327999,,1877,1
1622094389096,328019,,1776,1
1622094389096,328040,,1605,1
1622094389096,328061,,1415,1
1622094389096,328082,,1327,1
1622094389096,328103,,1347,1
1622094389096,328124,,1411,1
1622094389096,328145,,1799,1
1622094389096,328166,,2259,1
1622094389096,328187,,2643,0
1622094389096,328207,,2925,0
1622094389439,328227,,3005,0
1622094389439,328247,,2928,0
1622094389439,328268,,2672,0
1622094389439,328289,,2336,0
1622094389439,328310,,1936,0
1622094389439,328330,,1579,0
1622094389439,328351,,1313,0
1622094389439,328372,,1214,0
1622094389439,328393,,1263,0
1622094389439,328414,,1401,0
1622094389439,328435,,1589,0
1622094389439,328456,,1744,0
1622094389439,328476,,1865,0
1622094389439,328496,,2017,0
1622094389439,328517,,1994,0
1622094389439,328538,,1919,0
1622094389439,328559,,1994,0
1622094389439,328580,,2079,0
1622094389439,328601,,2115,0
1622094389439,328622,,2097,0
1622094389439,328642,,2107,0
1622094389439,328663,,1959,0
1622094389439,328684,,1808,0
1622094389439,328704,,1767,0
1622094389439,328725,,1826,0
1622094390099,328745,,1899,0
1622094390099,328765,,2142,0
1622094390099,328786,,2316,0
1622094390099,328807,,2428,0
1622094390099,328828,,2432,0
1622094390099,328849,,2375,0
1622094390099,328870,,2291,0
1622094390099,328891,,2192,0
1622094390099,328912,,2096,0
1622094390099,328932,,2021,0
1622094390099,328952,,1984,0
1622094390099,328973,,1970,0
1622094390099,328993,,1993,0
1622094390099,329014,,2010,0
1622094390099,329035,,2027,0
1622094390099,329055,,2038,0
1622094390099,329076,,2042,0
1622094390099,329097,,2017,0
1622094390099,329118,,2014,0
1622094390099,329139,,1838,0
1622094390099,329159,,1771,0
1622094390099,329179,,1714,0
1622094390099,329200,,1679,0
1622094390099,329221,,1655,1
1622094390099,329242,,1613,1
1622094390467,329262,,1632,1
1622094390467,329282,,1894,1
1622094390467,329303,,1966,1
1622094390467,329324,,2559,1
1622094390467,329344,,2694,1
1622094390467,329365,,2582,1
1622094390467,329385,,2419,1
1622094390467,329405,,2295,1
1622094390467,329426,,2227,1
1622094390467,329447,,2193,1
1622094390467,329467,,2193,1
1622094390467,329488,,2192,1
1622094390467,329509,,2206,1
1622094390467,329530,,2055,1
1622094390467,329551,,1817,1
1622094390467,329571,,1755,1
1622094390467,329592,,1677,1
1622094390467,329612,,1649,1
1622094390467,329633,,1683,1
1622094390467,329654,,1724,1
1622094390467,329675,,1831,1
1622094390467,329696,,1974,1
1622094390467,329717,,2101,1
1622094390467,329737,,2122,1
1622094390467,329757,,2087,1
1622094391008,329777,,1984,1
1622094391008,329797,,1834,1
1622094391008,329818,,1578,1
1622094391008,329838,,1285,1
1622094391008,329859,,1063,1
1622094391008,329880,,1008,1
1622094391008,329901,,1021,1
1622094391008,329922,,1245,1
1622094391008,329943,,1633,1
1622094391008,329964,,2012,1
1622094391008,329984,,2512,1
1622094391008,330005,,2917,1
1622094391008,330026,,3201,0
1622094391008,330046,,3193,0
1622094391008,330066,,2986,0
1622094391008,330087,,2672,0
1622094391008,330107,,2357,0
1622094391008,330128,,2082,0
1622094391008,330149,,1965,0
1622094391008,330170,,1911,0
1622094391008,330191,,1991,0
1622094391008,330212,,2114,0
1622094391008,330233,,2246,0
1622094391008,330254,,2334,0
1622094391008,330275,,2279,0
1622094391688,330295,,2277,0
1622094391688,330315,,2226,0
1622094391688,330336,,2110,0
1622094391688,330357,,1953,0
1622094391688,330378,,1663,0
1622094391688,330399,,1604,0
1622094391688,330420,,1638,0
1622094391688,330441,,1738,0
1622094391688,330462,,1891,0
1622094391688,330483,,2127,0
1622094391688,330504,,2425,0
1622094391688,330524,,2617,0
1622094391688,330545,,2690,0
1622094391688,330565,,2681,0
1622094391688,330585,,2526,0
1622094391688,330606,,2461,0
1622094391688,330627,,2413,0
1622094391688,330648,,2367,0
1622094391688,330669,,2306,0
1622094391688,330690,,2244,0
1622094391688,330711,,2190,0
1622094391688,330732,,2053,0
1622094391688,330752,,1858,0
1622094391688,330773,,1729,0
1622094391688,330793,,1586,0
1622094391973,330813,,1595,0
1622094391973,330833,,1616,0
1622094391973,330854,,1581,0
1622094391973,330875,,1535,0
1622094391973,330896,,1268,0
1622094391973,330917,,1264,0
1622094391973,330938,,1388,0
1622094391973,330959,,1527,0
1622094391973,330979,,1616,0
1622094391973,330999,,1701,0
1622094391973,331020,,1819,0
1622094391973,331041,,1872,0
1622094391973,331062,,1967,0
1622094391973,331083,,2086,0
1622094391973,331104,,2178,0
1622094391973,331125,,2299,0
1622094391973,331145,,2302,0
1622094391973,331166,,2158,0
1622094391973,331187,,1909,0
1622094391973,331207,,1731,0
1622094391973,331228,,1493,0
1622094391973,331249,,1341,0
1622094391973,331270,,1311,0
1622094391973,331291,,1369,0
1622094391973,331311,,1535,0
1622094392594,331331,,1847,0
1622094392594,331351,,2145,0
1622094392594,331372,,2341,0
1622094392594,331393,,2432,0
1622094392594,331413,,2483,0
1622094392594,331433,,2335,0
1622094392594,331453,,2154,0
1622094392594,331474,,2005,0
1622094392594,331495,,1874,0
1622094392594,331515,,1806,0
1622094392594,331535,,1859,0
1622094392594,331556,,1959,0
1622094392594,331577,,1946,1
1622094392594,331598,,1867,1
1622094392594,331619,,1862,1
1622094392594,331640,,2064,1
1622094392594,331660,,2214,1
1622094392594,331681,,2269,1
1622094392594,331702,,2243,1
1622094392594,331723,,2179,1
1622094392594,331744,,2118,1
1622094392594,331765,,2051,1
1622094392594,331786,,2013,1
1622094392594,331807,,2000,1
1622094392594,331828,,2059,1
1622094393342,331848,,1938,1
1622094393342,331868,,1973,1
1622094393342,331888,,2045,1
1622094393342,331908,,2083,1
1622094393342,331929,,2030,1
1622094393342,331950,,2044,1
1622094393342,331971,,2046,1
1622094393342,331992,,2017,1
1622094393342,332013,,1978,1
1622094393342,332034,,1988,1
1622094393342,332055,,1858,1
1622094393342,332076,,1733,1
1622094393342,332097,,1680,1
1622094393342,332117,,1626,1
1622094393342,332138,,1744,1
1622094393342,332159,,1940,1
1622094393342,332180,,2162,1
1622094393342,332201,,2323,1
1622094393342,332222,,2453,0
1622094393342,332242,,2461,0
1622094393342,332263,,2352,0
1622094393342,332284,,2247,0
1622094393342,332305,,2166,0
1622094393342,332326,,2057,0
1622094393342,332346,,2109,0
1622094393549,332366,,2161,0
1622094393549,332386,,2195,0
1622094393549,332407,,2176,0
1622094393549,332428,,2156,0
1622094393549,332449,,2053,0
1622094393549,332470,,1863,0
1622094393549,332491,,1726,0
1622094393549,332512,,1664,0
1622094393549,332533,,1616,0
1622094393549,332554,,1753,0
1622094393549,332574,,1872,0
1622094393549,332595,,1937,0
1622094393549,332616,,1934,0
1622094393549,332636,,1902,0
1622094393549,332657,,1833,0
1622094393549,332678,,1803,0
1622094393549,332699,,1746,0
1622094393549,332720,,1699,0
1622094393549,332740,,1760,0
1622094393549,332761,,1807,0
1622094393549,332782,,1834,0
1622094393549,332802,,1904,0
1622094393549,332822,,1971,0
1622094393549,332842,,2018,0
1622094393549,332862,,2187,0
1622094394042,332882,,2303,0
1622094394042,332902,,2376,0
1622094394042,332923,,2357,0
1622094394042,332943,,2263,0
1622094394042,332964,,2160,0
1622094394042,332985,,2063,0
1622094394042,333006,,2026,0
1622094394042,333026,,1959,0
1622094394042,333046,,1790,0
1622094394042,333067,,1798,0
1622094394042,333088,,1849,0
1622094394042,333109,,1891,0
1622094394042,333130,,1899,0
1622094394042,333151,,1939,0
1622094394042,333172,,1837,0
1622094394042,333193,,1697,0
1622094394042,333214,,1597,0
1622094394042,333235,,1525,0
1622094394042,333255,,1535,1
1622094394042,333276,,1680,1
1622094394042,333297,,1785,1
1622094394042,333318,,1849,1
1622094394042,333339,,1882,1
1622094394042,333360,,1911,1
1622094394042,333381,,1989,1
1622094394663,333401,,2093,1
1622094394663,333421,,2192,1
1622094394663,333442,,2255,1
1622094394663,333462,,2320,1
1622094394663,333482,,2282,1
1622094394663,333503,,2141,1
1622094394663,333524,,2000,1
1622094394663,333545,,1860,1
1622094394663,333565,,1829,1
1622094394663,333585,,1911,1
1622094394663,333606,,1973,1
1622094394663,333627,,2004,1
1622094394663,333648,,2027,1
1622094394663,333669,,2047,1
1622094394663,333690,,1916,1
1622094394663,333710,,1776,1
1622094394663,333731,,1680,1
1622094394663,333752,,1586,1
1622094394663,333773,,1616,1
1622094394663,333794,,1721,1
1622094394663,333815,,1850,1
1622094394663,333836,,1808,1
1622094394663,333857,,1663,1
1622094394663,333878,,1627,1
1622094394663,333899,,1675,1
1622094396606,333919,,1707,1
1622094396606,333939,,1747,1
1622094396606,333960,,1801,1
1622094396606,333980,,1885,1
1622094396606,334001,,2000,1
1622094396606,334022,,2112,1
1622094396606,334042,,2221,1
1622094396606,334063,,2096,1
1622094396606,334084,,2079,1
1622094396606,334105,,2103,1
1622094396606,334125,,2160,1
1622094396606,334146,,2032,1
1622094396606,334166,,1811,1
1622094396606,334187,,1762,1
1622094396606,334208,,1783,1
1622094396606,334228,,1859,1
1622094396606,334249,,1808,1
1622094396606,334270,,1673,1
1622094396606,334291,,1725,1
1622094396606,334312,,1798,1
1622094396606,334332,,1883,1
1622094396606,334353,,1779,1
1622094396606,334374,,1578,1
1622094396606,334394,,1554,1
1622094396606,334415,,1574,1
1622094399014,334436,,1569,1
1622094399014,334456,,1521,1
1622094399014,334476,,1460,1
1622094399014,334496,,1456,1
1622094399014,334517,,1331,1
1622094399014,334538,,1254,1
1622094399014,334559,,1303,1
1622094399014,334579,,1399,1
1622094399014,334600,,1722,1
1622094399014,334620,,2014,1
1622094399014,334640,,2293,1
1622094399014,334660,,2304,1
1622094399014,334680,,2191,1
1622094399014,334701,,2223,1
1622094399014,334722,,2269,1
1622094399014,334743,,2317,1
1622094399014,334764,,2164,1
1622094399014,334784,,1941,1
1622094399014,334805,,1914,1
1622094399014,334826,,1977,1
1622094399014,334846,,2100,1
1622094399014,334867,,2080,1
1622094399014,334888,,1985,1
1622094399014,334909,,2047,1
1622094399014,334930,,2112,1
1622094401267,334951,,2096,1
1622094401267,334971,,2035,1
1622094401267,334991,,1961,1
1622094401267,335012,,1867,1
1622094401267,335033,,1633,1
1622094401267,335054,,1395,1
1622094401267,335074,,1247,1
1622094401267,335094,,1079,1
1622094401267,335115,,1091,1
1622094401267,335136,,1126,1
1622094401267,335157,,1155,1
1622094401267,335178,,1052,1
1622094401267,335199,,1008,1
1622094401267,335220,,1423,1
1622094401267,335241,,2215,1
1622094401267,335262,,2743,1
1622094401267,335283,,2811,1
1622094401267,335303,,2673,1
1622094401267,335324,,2559,1
1622094401267,335345,,2511,0
1622094401267,335365,,2431,0
1622094401267,335386,,2279,0
1622094401267,335406,,2174,0
1622094401267,335427,,2177,0
1622094401267,335448,,2208,0
1622094401514,335469,,2117,0
1622094401514,335489,,2167,0
1622094401514,335509,,2283,0
1622094401514,335529,,2428,0
1622094401514,335550,,2289,0
1622094401514,335571,,2054,0
1622094401514,335592,,1787,0
1622094401514,335612,,1653,0
1622094401514,335633,,1606,0
1622094401514,335654,,1553,0
1622094401514,335675,,1379,0
1622094401514,335696,,1180,0
1622094401514,335717,,1299,0
1622094401514,335738,,1535,0
1622094401514,335758,,1689,0
1622094401514,335779,,1597,0
1622094401514,335800,,1391,0
1622094401514,335821,,1296,0
1622094401514,335842,,1347,0
1622094401514,335863,,1477,0
1622094401514,335884,,1515,0
1622094401514,335905,,1471,0
1622094401514,335926,,1479,0
1622094401514,335947,,1438,0
1622094401514,335967,,1433,0
1622094401935,335988,,1265,0
1622094401935,336008,,1232,0
1622094401935,336029,,1168,0
1622094401935,336050,,1301,0
1622094401935,336071,,1319,0
1622094401935,336092,,1410,0
1622094401935,336113,,1505,0
1622094401935,336134,,1849,0
1622094401935,336155,,2393,0
1622094401935,336175,,2887,0
1622094401935,336196,,3245,0
1622094401935,336216,,3319,0
1622094401935,336236,,3101,0
1622094401935,336257,,2559,0
1622094401935,336278,,1992,0
1622094401935,336299,,1437,0
1622094401935,336320,,967,0
1622094401935,336341,,667,0
1622094401935,336362,,592,0
1622094401935,336383,,816,0
1622094401935,336404,,1308,0
1622094401935,336425,,1918,0
1622094401935,336445,,2410,0
1622094401935,336466,,2674,0
1622094401935,336487,,2704,0
1622094402618,337027,,704,0
1622094402618,337047,,1197,0
1622094402618,337068,,1727,0
1622094402618,337089,,2150,0
1622094402618,337110,,2256,0
1622094402618,337130,,2210,0
1622094402618,337151,,2166,0
1622094402618,337172,,2007,0
1622094402618,337193,,1782,1
1622094402618,337214,,1552,1
1622094402618,337235,,1360,1
1622094402618,337256,,1360,1
1622094402618,337277,,1419,1
1622094402618,337298,,1535,1
1622094402618,337319,,1695,1
1622094402618,337340,,1803,1
1622094402618,337360,,1860,1
1622094402618,337381,,1830,1
1622094402618,337402,,1731,1
1622094402618,337423,,1597,1
1622094402618,337444,,1461,1
1622094402618,337465,,1430,1
1622094402618,337486,,1423,1
1622094402618,337507,,1465,1
1622094402618,337528,,1535,1
1622094404937,340661,,2325,1
1622094404937,340681,,2495,1
1622094404937,340702,,2645,1
1622094404937,340723,,2689,1
1622094404937,340744,,2704,1
1622094404937,340765,,2775,1
1622094404937,340785,,2768,1
1622094404937,340806,,2752,1
1622094404937,340827,,2719,1
1622094404937,340848,,2545,1
1622094404937,340869,,2175,1
1622094404937,340890,,1687,1
1622094404937,340911,,1235,1
1622094404937,340931,,1021,1
1622094404937,340952,,1152,1
1622094404937,340973,,1488,1
1622094404937,340994,,1842,1
1622094404937,341014,,2063,1
1622094404937,341035,,2086,1
1622094404937,341056,,1905,1
1622094404937,341077,,1674,1
1622094404937,341098,,1523,1
1622094404937,341119,,1522,1
1622094404937,341140,,1686,1
1622094404937,341161,,1839,1
1622094405325,341182,,1898,1
1622094405325,341202,,2074,1
1622094405325,341222,,2205,1
1622094405325,341242,,2288,1
1622094405325,341263,,2390,0
1622094405325,341283,,2415,0
1622094405325,341304,,2353,0
1622094405325,341325,,2299,0
1622094405325,341346,,2307,0
1622094405325,341367,,2155,0
1622094405325,341388,,1887,0
1622094405325,341409,,1535,0
1622094405325,341430,,1171,0
1622094405325,341450,,995,0
1622094405325,341470,,922,0
1622094405325,341490,,1085,0
1622094405325,341511,,1456,0
1622094405325,341532,,1891,0
1622094405325,341552,,2247,0
1622094405325,341573,,2430,0
1622094405325,341594,,2421,0
1622094405325,341615,,2106,0
1622094405325,341636,,1648,0
1622094405325,341657,,1410,0
1622094405325,341678,,1413,0
1622094406224,341698,,1535,0
1622094406224,341718,,1773,0
1622094406224,341739,,2034,0
1622094406224,341760,,2287,0
1622094406224,341781,,2403,0
1622094406224,341802,,2393,0
1622094406224,341823,,2122,0
1622094406224,341844,,1717,0
1622094406224,341865,,1598,0
1622094406224,341886,,1633,0
1622094406224,341907,,1776,0
1622094406224,341927,,1808,0
1622094406224,341947,,1794,0
1622094406224,341968,,1951,0
1622094406224,341989,,2144,0
1622094406224,342010,,2253,0
1622094406224,342031,,2301,0
1622094406224,342052,,2270,0
1622094406224,342072,,2218,0
1622094406224,342092,,2091,0
1622094406224,342113,,2018,0
1622094406224,342134,,1847,0
1622094406224,342154,,1663,0
1622094406224,342175,,1572,0
1622094406224,342196,,1492,0
1622094406931,342216,,1444,0
1622094406931,342236,,1625,0
1622094406931,342257,,1873,0
1622094406931,342278,,2239,0
1622094406931,342299,,2437,0
1622094406931,342319,,2603,0
1622094406931,342340,,2675,0
1622094406931,342361,,2543,0
1622094406931,342381,,2337,0
1622094406931,342401,,2192,0
1622094406931,342422,,2231,0
1622094406931,342443,,2476,0
1622094406931,342463,,2799,0
1622094406931,342484,,3089,0
1622094406931,342505,,3199,0
1622094406931,342526,,3235,0
1622094406931,342547,,3248,0
1622094406931,342568,,3376,0
1622094406931,342589,,3539,0
1622094406931,342609,,3626,0
1622094406931,342630,,3525,0
1622094406931,342651,,3259,0
1622094406931,342671,,2837,0
1622094406931,342692,,2523,0
1622094406931,342713,,2203,0
1622094407428,342734,,1840,0
1622094407428,342754,,1600,0
1622094407428,342775,,1455,0
1622094407428,342796,,1423,0
1622094407428,342816,,1535,0
1622094407428,342836,,1587,0
1622094407428,342856,,1661,0
1622094407428,342876,,1791,0
1622094407428,342897,,1917,0
1622094407428,342918,,1994,0
1622094407428,342939,,2014,0
1622094407428,342960,,1974,0
1622094407428,342981,,1994,0
1622094407428,343002,,2023,0
1622094407428,343023,,2059,0
1622094407428,343044,,2116,0
1622094407428,343064,,2203,0
1622094407428,343084,,2357,0
1622094407428,343105,,2494,0
1622094407428,343126,,2546,0
1622094407428,343147,,2531,0
1622094407428,343168,,2432,0
1622094407428,343189,,2411,0
1622094407428,343210,,2363,0
1622094407428,343231,,2338,0
1622094409432,344288,,1313,0
1622094409432,344308,,1453,0
1622094409432,344329,,1713,0
1622094409432,344350,,2075,0
1622094409432,344371,,2307,0
1622094409432,344392,,2497,0
1622094409432,344412,,2608,0
1622094409432,344432,,2769,0
1622094409432,344453,,2864,0
1622094409432,344474,,2854,0
1622094409432,344495,,2622,0
1622094409432,344515,,2353,0
1622094409432,344536,,2311,0
1622094409432,344557,,2355,0
1622094409432,344578,,2347,0
1622094409432,344599,,2149,0
1622094409432,344619,,1936,0
1622094409432,344640,,1847,0
1622094409432,344660,,1755,0
1622094409432,344681,,1645,0
1622094409432,344702,,1359,0
1622094409432,344723,,1104,0
1622094409432,344744,,1068,0
1622094409432,344765,,1095,0
1622094409432,344786,,1038,1
1622094409730,344807,,830,1
1622094409730,344827,,817,1
1622094409730,344847,,889,1
1622094409730,344868,,1057,1
1622094409730,344888,,1115,1
1622094409730,344909,,1189,1
1622094409730,344929,,1372,1
1622094409730,344950,,1714,1
1622094409730,344971,,2130,1
1622094409730,344992,,2342,1
1622094409730,345013,,2323,1
1622094409730,345033,,2247,1
1622094409730,345054,,2347,1
1622094409730,345075,,2336,1
1622094409730,345096,,2332,1
1622094409730,345116,,2174,1
1622094409730,345137,,2109,1
1622094409730,345158,,2002,1
1622094409730,345179,,1926,1
1622094409730,345200,,1874,1
1622094409730,345221,,1815,1
1622094409730,345242,,1840,1
1622094409730,345263,,1811,1
1622094409730,345284,,1785,1
1622094409730,345305,,1777,1
1622094410437,345846,,1685,0
1622094410437,345866,,1687,0
1622094410437,345887,,1669,0
1622094410437,345908,,1680,0
1622094410437,345929,,1570,0
1622094410437,345949,,1493,0
1622094410437,345970,,1506,0
1622094410437,345991,,1520,0
1622094410437,346012,,1501,0
1622094410437,346032,,1440,0
1622094410437,346052,,1406,0
1622094410437,346073,,1360,0
1622094410437,346094,,1299,0
1622094410437,346115,,1274,0
1622094410437,346136,,1267,0
1622094410437,346156,,1341,0
1622094410437,346177,,1455,0
1622094410437,346198,,1612,0
1622094410437,346219,,1795,0
1622094410437,346240,,1946,0
1622094410437,346260,,2109,0
1622094410437,346281,,2160,0
1622094410437,346302,,2133,0
1622094410437,346323,,2102,0
1622094410437,346344,,2058,0
1622094410637,346364,,2087,0
1622094410637,346384,,2244,0
1622094410637,346405,,2341,0
1622094410637,346425,,2384,0
1622094410637,346446,,2159,0
1622094410637,346466,,2022,0
1622094410637,346486,,1879,0
1622094410637,346506,,1805,0
1622094410637,346527,,1783,0
1622094410637,346548,,1791,0
1622094410637,346568,,1883,0
1622094410637,346589,,1925,0
1622094410637,346610,,1927,0
1622094410637,346631,,1902,0
1622094410637,346652,,1840,0
1622094410637,346673,,1893,0
1622094410637,346694,,1884,0
1622094410637,346714,,1863,0
1622094410637,346735,,1808,0
1622094410637,346756,,1677,0
1622094410637,346777,,1579,0
1622094410637,346798,,1421,0
1622094410637,346819,,1344,0
1622094410637,346840,,1414,0
1622094410637,346861,,1558,0
1622094410836,346882,,1739,0
1622094410836,346902,,1961,0
1622094410836,346923,,2097,0
1622094410836,346943,,2126,0
1622094410836,346963,,1911,0
1622094410836,346984,,1706,0
1622094410836,347005,,1447,0
1622094410836,347026,,1235,0
1622094410836,347047,,1103,0
1622094410836,347068,,1067,0
1622094410836,347089,,1200,0
1622094410836,347110,,1395,0
1622094410836,347131,,1664,0
1622094410836,347152,,1939,0
1622094410836,347172,,2167,0
1622094410836,347192,,2342,0
1622094410836,347213,,2411,0
1622094410836,347234,,2365,0
1622094410836,347254,,2237,0
1622094410836,347274,,2087,0
1622094410836,347295,,1991,0
1622094410836,347316,,1934,0
1622094410836,347337,,1898,0
1622094410836,347358,,1846,0
1622094410836,347378,,1773,0
1622094410935,347398,,1600,0
1622094410935,347418,,1531,0
1622094410935,347439,,1531,0
1622094410935,347460,,1616,0
1622094410935,347481,,1600,0
1622094410935,347501,,1586,0
1622094410935,347522,,1531,0
1622094410935,347543,,1462,0
1622094410935,347564,,1407,0
1622094410935,347584,,1345,0
1622094410935,347605,,1322,0
1622094410935,347625,,1370,0
1622094410935,347645,,1535,0
1622094410935,347665,,1768,0
1622094410935,347686,,2011,0
1622094410935,347706,,2247,0
1622094410935,347726,,2411,0
1622094410935,347746,,2467,0
1622094410935,347766,,2427,0
1622094410935,347786,,2326,0
1622094410935,347807,,2229,0
1622094410935,347828,,2086,0
1622094410935,347848,,1943,0
1622094410935,347868,,1847,0
1622094410935,347889,,1758,0
1622094410952,347909,,1654,0
1622094410952,347929,,1653,0
1622094410952,347949,,1677,0
1622094410952,347970,,1681,0
1622094410952,347991,,1553,0
1622094410952,348012,,1552,0
1622094410952,348033,,1678,0
1622094410952,348054,,1915,0
1622094410952,348074,,2182,0
1622094410952,348094,,2399,0
1622094410952,348114,,2534,0
1622094410952,348135,,2531,0
1622094410952,348156,,2426,0
1622094410952,348177,,2254,0
1622094410952,348198,,2062,0
1622094410952,348219,,1941,0
1622094410952,348240,,1865,0
1622094410952,348261,,1863,0
1622094410952,348282,,1926,0
1622094410952,348302,,2019,0
1622094410952,348323,,2112,0
1622094410952,348344,,2149,0
1622094410952,348364,,2122,0
1622094410952,348384,,2064,0
1622094410952,348404,,1988,0
1622094410973,348425,,1882,0
1622094410973,348445,,1938,0
1622094410973,348466,,2030,0
1622094410973,348487,,2065,0
1622094410973,348508,,1961,0
1622094410973,348528,,1853,0
1622094410973,348549,,1778,0
1622094410973,348570,,1799,0
1622094410973,348591,,1931,0
1622094410973,348611,,2128,0
1622094410973,348632,,2320,0
1622094410973,348652,,2438,0
1622094410973,348672,,2483,0
1622094410973,348692,,2482,0
1622094410973,348712,,2474,0
1622094410973,348732,,2432,0
1622094410973,348752,,2346,0
1622094410973,348773,,2224,0
1622094410973,348794,,2109,0
1622094410973,348815,,2018,0
1622094410973,348836,,1978,0
1622094410973,348857,,1947,0
1622094410973,348878,,1923,0
1622094410973,348899,,1893,0
1622094410973,348920,,1915,0
1622094410986,348941,,1858,0
1622094410986,348961,,1938,0
1622094410986,348981,,1994,0
1622094410986,349002,,2014,0
1622094410986,349022,,1905,0
1622094410986,349043,,1766,0
1622094410986,349064,,1625,0
1622094410986,349085,,1535,0
1622094410986,349106,,1535,0
1622094410986,349127,,1742,0
1622094410986,349148,,1996,0
1622094410986,349169,,2258,0
1622094410986,349189,,2450,0
1622094410986,349209,,2513,0
1622094410986,349230,,2559,0
1622094410986,349251,,2519,0
1622094410986,349272,,2431,0
1622094410986,349293,,2323,0
1622094410986,349314,,2179,0
1622094410986,349335,,2119,0
1622094410986,349356,,2002,0
1622094410986,349377,,1874,0
1622094410986,349398,,1778,0
1622094410986,349419,,1683,0
1622094410986,349439,,1708,0
1622094411020,349460,,1665,0
1622094411020,349480,,1791,0
1622094411020,349501,,1904,0
1622094411020,349522,,1971,0
1622094411020,349543,,1935,0
1622094411020,349564,,1829,0
1622094411020,349585,,1742,0
1622094411020,349606,,1679,0
1622094411020,349627,,1665,0
1622094411020,349648,,1811,0
1622094411020,349668,,1987,0
1622094411020,349689,,2179,0
1622094411020,349710,,2346,0
1622094411020,349730,,2416,0
1622094411020,349750,,2435,0
1622094411020,349771,,2351,0
1622094411020,349792,,2209,0
1622094411020,349813,,2070,0
1622094411020,349834,,1939,0
1622094411020,349855,,1883,0
1622094411020,349876,,1823,0
1622094411020,349896,,1802,0
1622094411020,349917,,1815,0
1622094411020,349938,,1884,0
1622094411020,349959,,1990,0
1622094411141,349980,,2001,0
1622094411141,350000,,2150,0
1622094411141,350021,,2247,0
1622094411141,350041,,2299,0
1622094411141,350062,,2179,0
1622094411141,350083,,2007,0
1622094411141,350104,,1865,0
1622094411141,350124,,1767,0
1622094411141,350144,,1688,0
1622094411141,350165,,1630,0
1622094411141,350186,,1594,0
1622094411141,350207,,1682,0
1622094411141,350228,,1904,0
1622094411141,350249,,2230,0
1622094411141,350270,,2501,0
1622094411141,350290,,2672,0
1622094411141,350310,,2719,0
1622094411141,350331,,2671,0
1622094411141,350351,,2559,0
1622094411141,350372,,2439,0
1622094411141,350393,,2274,0
1622094411141,350414,,2107,0
1622094411141,350435,,1936,0
1622094411141,350456,,1859,0
1622094411141,350477,,1807,0
1622094411658,350498,,1747,0
1622094411658,350518,,1886,0
1622094411658,350539,,2071,0
1622094411658,350559,,2237,0
1622094411658,350579,,2199,0
1622094411658,350600,,2097,0
1622094411658,350621,,1973,0
1622094411658,350642,,1856,0
1622094411658,350663,,1799,0
1622094411658,350684,,1744,0
1622094411658,350705,,1690,0
1622094411658,350726,,1661,0
1622094411658,350747,,1622,1
1622094411658,350767,,1739,1
1622094411658,350788,,1890,1
1622094411658,350808,,2103,1
1622094411658,350829,,2327,1
1622094411658,350850,,2512,1
1622094411658,350870,,2701,1
1622094411658,350891,,2779,1
1622094411658,350912,,2762,1
1622094411658,350933,,2673,1
1622094411658,350954,,2466,1
1622094411658,350975,,2368,1
1622094411658,350996,,2205,1
1622094412210,351017,,2001,1
1622094412210,351037,,2013,1
1622094412210,351058,,2105,1
1622094412210,351079,,2177,1
1622094412210,351100,,2110,1
1622094412210,351121,,2002,1
1622094412210,351142,,1910,1
1622094412210,351163,,1824,1
1622094412210,351184,,1824,1
1622094412210,351205,,1806,1
1622094412210,351226,,1808,1
1622094412210,351247,,1831,1
1622094412210,351267,,1853,1
1622094412210,351288,,1906,1
1622094412210,351309,,1885,1
1622094412210,351330,,1840,1
1622094412210,351351,,1839,1
1622094412210,351372,,1936,1
1622094412210,351393,,2162,1
1622094412210,351414,,2364,1
1622094412210,351435,,2507,1
1622094412210,351455,,2557,1
1622094412210,351475,,2535,1
1622094412210,351495,,2474,1
1622094412210,351516,,2363,1
1622094412776,351536,,2192,1
1622094412776,351556,,2169,1
1622094412776,351577,,2167,1
1622094412776,351598,,2143,1
1622094412776,351619,,1950,1
1622094412776,351640,,1794,1
1622094412776,351661,,1703,1
1622094412776,351682,,1687,1
1622094412776,351703,,1711,1
1622094412776,351723,,1712,1
1622094412776,351744,,1717,1
1622094412776,351765,,1715,1
1622094412776,351785,,1715,1
1622094412776,351806,,1702,1
1622094412776,351827,,1667,1
1622094412776,351848,,1641,1
1622094412776,351869,,1620,1
1622094412776,351890,,1654,1
1622094412776,351911,,1663,1
1622094412776,351932,,1637,1
1622094412776,351952,,1664,1
1622094412776,351973,,1758,1
1622094412776,351993,,1977,1
1622094412776,352014,,2193,1
1622094412776,352035,,2367,1
1622094413583,352056,,2414,1
1622094413583,352076,,2525,1
1622094413583,352097,,2626,1
1622094413583,352118,,2622,1
1622094413583,352139,,2405,1
1622094413583,352160,,2169,1
1622094413583,352180,,1929,1
1622094413583,352200,,1825,1
1622094413583,352221,,1742,1
1622094413583,352242,,1693,1
1622094413583,352263,,1684,1
1622094413583,352284,,1652,1
1622094413583,352305,,1722,1
1622094413583,352326,,1721,1
1622094413583,352347,,1713,1
1622094413583,352368,,1707,1
1622094413583,352389,,1680,1
1622094413583,352409,,1717,1
1622094413583,352430,,1705,1
1622094413583,352451,,1674,1
1622094413583,352472,,1648,1
1622094413583,352493,,1623,1
1622094413583,352514,,1664,1
1622094413583,352535,,1632,1
1622094413583,352556,,1591,1
1622094413831,352577,,1588,1
1622094413831,352597,,1823,1
1622094413831,352618,,2107,1
1622094413831,352638,,2393,1
1622094413831,352658,,2582,1
1622094413831,352679,,2602,1
1622094413831,352700,,2515,1
1622094413831,352721,,2387,1
1622094413831,352742,,2247,1
1622094413831,352763,,2150,1
1622094413831,352784,,2047,1
1622094413831,352804,,1955,1
1622094413831,352825,,1919,1
1622094413831,352846,,1900,1
1622094413831,352867,,1929,1
1622094413831,352888,,1826,1
1622094413831,352909,,1679,1
1622094413831,352930,,1727,1
1622094413831,352950,,1815,1
1622094413831,352971,,1886,1
1622094413831,352992,,1970,1
1622094413831,353013,,1907,1
1622094413831,353034,,1772,1
1622094413831,353055,,1636,1
1622094413831,353076,,1535,1
1622094414403,353096,,1467,1
1622094414403,353116,,1597,1
1622094414403,353137,,1753,1
1622094414403,353158,,1903,1
1622094414403,353178,,1962,1
1622094414403,353199,,1995,1
1622094414403,353220,,2082,1
1622094414403,353241,,2202,1
1622094414403,353262,,2235,1
1622094414403,353283,,2269,1
1622094414403,353304,,2285,1
1622094414403,353324,,2293,1
1622094414403,353345,,2447,1
1622094414403,353365,,2512,1
1622094414403,353386,,2482,1
1622094414403,353407,,2355,1
1622094414403,353428,,2188,1
1622094414403,353449,,2087,1
1622094414403,353470,,1895,1
1622094414403,353491,,1721,1
1622094414403,353512,,1607,1
1622094414403,353532,,1610,1
1622094414403,353552,,1746,1
1622094414403,353573,,1901,1
1622094414403,353594,,1905,1
1622094415223,353615,,1744,1
1622094415223,353635,,1811,1
1622094415223,353656,,1829,1
1622094415223,353677,,1857,1
1622094415223,353698,,1805,1
1622094415223,353719,,1801,1
1622094415223,353740,,1758,1
1622094415223,353761,,1717,1
1622094415223,353781,,1722,1
1622094415223,353802,,1589,1
1622094415223,353823,,1431,1
1622094415223,353844,,1511,1
1622094415223,353865,,1775,1
1622094415223,353886,,2047,1
1622094415223,353907,,2292,1
1622094415223,353927,,2442,1
1622094415223,353948,,2551,1
1622094415223,353969,,2460,1
1622094415223,353990,,2261,1
1622094415223,354010,,2071,1
1622094415223,354031,,1865,1
1622094415223,354052,,1840,1
1622094415223,354073,,1885,1
1622094415223,354094,,1924,1
1622094415223,354115,,1921,1
1622094415659,354135,,1890,1
1622094415659,354155,,1862,1
1622094415659,354176,,1856,1
1622094415659,354197,,1863,1
1622094415659,354218,,1728,1
1622094415659,354238,,1535,1
1622094415659,354259,,1584,1
1622094415659,354279,,1686,1
1622094415659,354300,,1772,1
1622094415659,354321,,1819,1
1622094415659,354342,,1839,1
1622094415659,354363,,1835,1
1622094415659,354384,,1851,1
1622094415659,354405,,1715,1
1622094415659,354426,,1648,1
1622094415659,354447,,1692,1
1622094415659,354467,,1951,1
1622094415659,354487,,2333,1
1622094415659,354507,,2583,1
1622094415659,354528,,2741,1
1622094415659,354549,,2811,1
1622094415659,354570,,2662,1
1622094415659,354591,,2416,1
1622094415659,354612,,2192,1
1622094415659,354633,,2029,1
1622094415847,354653,,1859,1
1622094415847,354673,,1890,1
1622094415847,354693,,1954,1
1622094415847,354714,,1995,1
1622094415847,354735,,2040,1
1622094415847,354755,,2032,1
1622094415847,354776,,1921,1
1622094415847,354797,,1801,1
1622094415847,354818,,1717,1
1622094415847,354839,,1649,1
1622094415847,354859,,1600,1
1622094415847,354880,,1703,1
1622094415847,354901,,1833,1
1622094415847,354921,,1852,1
1622094415847,354942,,1713,1
1622094415847,354962,,1596,1
1622094415847,354983,,1626,1
1622094415847,355004,,1672,1
1622094415847,355024,,1713,1
1622094415847,355045,,1825,1
1622094415847,355066,,1997,1
1622094415847,355087,,2234,1
1622094415847,355108,,2375,1
1622094415847,355129,,2372,1
1622094415847,355149,,2292,1
1622094416569,355169,,2241,1
1622094416569,355189,,2282,1
1622094416569,355210,,2315,1
1622094416569,355231,,2275,1
1622094416569,355252,,2179,1
1622094416569,355272,,2085,1
1622094416569,355293,,1853,1
1622094416569,355314,,1668,1
1622094416569,355335,,1588,1
1622094416569,355356,,1570,1
1622094416569,355376,,1675,1
1622094416569,355397,,1846,1
1622094416569,355418,,2023,1
1622094416569,355439,,1985,1
1622094416569,355460,,1795,1
1622094416569,355481,,1706,1
1622094416569,355502,,1712,1
1622094416569,355523,,1750,1
1622094416569,355544,,1755,1
1622094416569,355565,,1770,1
1622094416569,355586,,1731,1
1622094416569,355606,,1570,1
1622094416569,355627,,1440,1
1622094416569,355648,,1421,1
1622094416569,355669,,1490,1
1622094416873,355689,,1776,1
1622094416873,355709,,2107,1
1622094416873,355730,,2396,0
1622094416873,355750,,2522,0
1622094416873,355771,,2576,0
1622094416873,355792,,2478,0
1622094416873,355813,,2258,0
1622094416873,355833,,2062,0
1622094416873,355854,,1904,0
1622094416873,355875,,1744,0
1622094416873,355896,,1775,0
1622094416873,355917,,1842,0
1622094416873,355938,,1891,0
1622094416873,355959,,1886,0
1622094416873,355979,,1872,0
1622094416873,356000,,1837,0
1622094416873,356021,,1790,0
1622094416873,356042,,1733,0
1622094416873,356062,,1675,0
1622094416873,356082,,1685,0
1622094416873,356103,,1598,0
1622094416873,356124,,1488,0
1622094416873,356145,,1439,0
1622094416873,356166,,1443,0
1622094416873,356187,,1447,0
1622094417809,356207,,1605,0
1622094417809,356227,,1769,0
1622094417809,356248,,1857,0
1622094417809,356269,,1883,0
1622094417809,356289,,1840,0
1622094417809,356310,,1729,0
1622094417809,356331,,1693,0
1622094417809,356352,,1784,0
1622094417809,356373,,1968,0
1622094417809,356393,,2141,0
1622094417809,356414,,2426,0
1622094417809,356434,,2624,0
1622094417809,356455,,2701,0
1622094417809,356476,,2630,0
1622094417809,356496,,2542,0
1622094417809,356516,,2256,0
1622094417809,356537,,1931,0
1622094417809,356558,,1697,0
1622094417809,356579,,1535,0
1622094417809,356600,,1494,0
1622094417809,356621,,1648,0
1622094417809,356642,,1807,0
1622094417809,356663,,1939,0
1622094417809,356684,,1979,0
1622094417809,356704,,1965,0
1622094417900,356724,,1922,0
1622094417900,356745,,1872,0
1622094417900,356766,,1802,1
1622094417900,356787,,1745,1
1622094417900,356807,,1683,1
1622094417900,356828,,1535,1
1622094417900,356849,,1447,1
1622094417900,356870,,1424,1
1622094417900,356891,,1421,1
1622094417900,356911,,1489,1
1622094417900,356932,,1674,1
1622094417900,356953,,1855,1
1622094417900,356973,,2027,1
1622094417900,356994,,2226,1
1622094417900,357015,,2337,1
1622094417900,357036,,2323,1
1622094417900,357057,,2269,1
1622094417900,357078,,2209,1
1622094417900,357099,,2097,1
1622094417900,357120,,2070,1
1622094417900,357141,,2119,1
1622094417900,357161,,2131,1
1622094417900,357182,,2082,1
1622094417900,357202,,1997,1
1622094417900,357223,,1930,1
1622094418408,357243,,1904,1
1622094418408,357263,,1904,1
1622094418408,357284,,1882,1
1622094418408,357305,,1877,1
1622094418408,357326,,1815,1
1622094418408,357347,,1676,1
1622094418408,357368,,1581,1
1622094418408,357389,,1531,1
1622094418408,357410,,1535,1
1622094418408,357430,,1618,1
1622094418408,357451,,1665,1
1622094418408,357472,,1699,1
1622094418408,357493,,1713,1
1622094418408,357514,,1645,1
1622094418408,357535,,1747,1
1622094418408,357556,,1882,1
1622094418408,357577,,2043,1
1622094418408,357598,,2187,1
1622094418408,357618,,2299,1
1622094418408,357639,,2341,0
1622094418408,357659,,2290,0
1622094418408,357680,,2090,0
1622094418408,357701,,1684,0
1622094418408,357722,,1201,0
1622094418408,357742,,894,0
1622094418921,357762,,860,0
1622094418921,357782,,1051,0
1622094418921,357803,,1395,0
1622094418921,357823,,1759,0
1622094418921,357844,,2038,0
1622094418921,357865,,2194,0
1622094418921,357885,,2239,0
1622094418921,357906,,2225,0
1622094418921,357927,,2227,0
1622094418921,357948,,2241,0
1622094418921,357968,,2262,0
1622094418921,357989,,2057,0
1622094418921,358010,,1727,0
1622094418921,358031,,1319,0
1622094418921,358052,,1134,0
1622094418921,358073,,1007,0
1622094418921,358094,,958,0
1622094418921,358114,,979,0
1622094418921,358135,,1087,0
1622094418921,358156,,1338,0
1622094418921,358177,,1744,0
1622094418921,358198,,2127,0
1622094418921,358219,,2454,0
1622094418921,358239,,2553,0
1622094418921,358260,,2496,0
1622094419440,358280,,2398,0
1622094419440,358300,,2362,0
1622094419440,358320,,2438,0
1622094419440,358340,,2551,0
1622094419440,358360,,2659,0
1622094419440,358381,,2715,0
1622094419440,358402,,2767,0
1622094419440,358423,,2846,0
1622094419440,358443,,2931,0
1622094419440,358464,,2978,0
1622094419440,358485,,2918,0
1622094419440,358506,,2690,0
1622094419440,358527,,2354,0
1622094419440,358548,,1989,0
1622094419440,358568,,1675,0
1622094419440,358589,,1303,0
1622094419440,358610,,994,0
1622094419440,358631,,759,0
1622094419440,358652,,662,0
1622094419440,358673,,757,0
1622094419440,358694,,922,0
1622094419440,358715,,1168,0
1622094419440,358736,,1488,0
1622094419440,358757,,1920,0
1622094419440,358777,,2463,0
1622094420842,358797,,2746,0
1622094420842,358817,,3029,0
1622094420842,358838,,3177,0
1622094420842,358859,,3120,0
1622094420842,358880,,2800,0
1622094420842,358901,,2478,0
1622094420842,358922,,2245,0
1622094420842,358943,,2079,0
1622094420842,358964,,2134,0
1622094420842,358985,,2320,0
1622094420842,359005,,2495,0
1622094420842,359025,,2608,0
1622094420842,359046,,2617,0
1622094420842,359067,,2467,0
1622094420842,359087,,2123,0
1622094420842,359108,,1761,0
1622094420842,359129,,1460,0
1622094420842,359150,,1251,0
1622094420842,359171,,1326,0
1622094420842,359192,,1518,0
1622094420842,359212,,1682,0
1622094420842,359233,,1776,0
1622094420842,359253,,1834,0
1622094420842,359274,,1776,0
1622094420842,359295,,1642,0
1622094424459,359316,,1562,0
1622094424459,359336,,1771,0
1622094424459,359357,,2054,0
1622094424459,359378,,2416,0
1622094424459,359399,,2593,0
1622094424459,359419,,2689,0
1622094424459,359440,,2719,0
1622094424459,359461,,2640,0
1622094424459,359481,,2682,0
1622094424459,359502,,2740,0
1622094424459,359522,,2795,0
1622094424459,359542,,2647,0
1622094424459,359563,,2383,0
1622094424459,359584,,2351,0
1622094424459,359605,,2288,0
1622094424459,359625,,2191,0
1622094424459,359646,,1983,0
1622094424459,359666,,1748,0
1622094424459,359687,,1456,0
1622094424459,359707,,1200,0
1622094424459,359728,,1146,0
1622094424459,359749,,1294,0
1622094424459,359769,,1504,0
1622094424459,359790,,1875,0
1622094424459,359811,,2153,0
1622094427054,360867,,1889,0
1622094427054,360887,,1927,0
1622094427054,360908,,1953,0
1622094427054,360929,,2014,0
1622094427054,360950,,1911,0
1622094427054,360971,,1797,0
1622094427054,360992,,1680,0
1622094427054,361013,,1653,0
1622094427054,361034,,1614,0
1622094427054,361055,,1596,0
1622094427054,361075,,1615,0
1622094427054,361096,,1665,0
1622094427054,361117,,1770,0
1622094427054,361138,,1823,0
1622094427054,361159,,1825,0
1622094427054,361180,,1792,0
1622094427054,361201,,1735,0
1622094427054,361222,,1767,0
1622094427054,361243,,1872,0
1622094427054,361264,,2090,0
1622094427054,361285,,2361,0
1622094427054,361305,,2640,0
1622094427054,361325,,2855,0
1622094427054,361346,,2911,0
1622094427054,361367,,2843,0
1622094429065,363990,,2917,0
1622094429065,364010,,3023,0
1622094429065,364031,,2919,0
1622094429065,364051,,2611,0
1622094429065,364072,,2157,0
1622094429065,364093,,1706,0
1622094429065,364114,,1243,0
1622094429065,364135,,1062,0
1622094429065,364156,,1153,0
1622094429065,364176,,1463,0
1622094429065,364197,,1803,0
1622094429065,364218,,2017,0
1622094429065,364239,,2065,0
1622094429065,364260,,1955,0
1622094429065,364280,,1869,0
1622094429065,364301,,1794,0
1622094429065,364322,,1767,0
1622094429065,364343,,1790,0
1622094429065,364364,,1807,0
1622094429065,364385,,1869,0
1622094429065,364406,,1847,0
1622094429065,364427,,1774,0
1622094429065,364448,,1686,0
1622094429065,364469,,1607,0
1622094429065,364490,,1664,0
1622094429203,364510,,1632,0
1622094429203,364530,,1733,0
1622094429203,364551,,1839,0
1622094429203,364572,,1854,0
1622094429203,364593,,1839,0
1622094429203,364614,,1792,0
1622094429203,364635,,1648,0
1622094429203,364656,,1579,0
1622094429203,364677,,1562,0
1622094429203,364698,,1667,0
1622094429203,364719,,1677,0
1622094429203,364739,,1615,0
1622094429203,364760,,1527,0
1622094429203,364781,,1445,0
1622094429203,364802,,1458,0
1622094429203,364823,,1456,0
1622094429203,364844,,1438,0
1622094429203,364865,,1418,0
1622094429203,364886,,1422,0
1622094429203,364907,,1556,0
1622094429203,364928,,1707,0
1622094429203,364949,,1872,0
1622094429203,364969,,2029,0
1622094429203,364990,,2143,0
1622094429203,365011,,2217,0
1622094429669,365031,,2160,1
1622094429669,365051,,2199,1
1622094429669,365072,,2252,1
1622094429669,365093,,2223,1
1622094429669,365114,,2082,1
1622094429669,365135,,1921,1
1622094429669,365156,,1809,1
1622094429669,365177,,1754,1
1622094429669,365197,,1722,1
1622094429669,365218,,1699,1
1622094429669,365239,,1630,1
1622094429669,365260,,1562,1
1622094429669,365281,,1488,1
1622094429669,365301,,1458,1
1622094429669,365322,,1466,1
1622094429669,365343,,1477,1
1622094429669,365364,,1523,1
1622094429669,365385,,1597,1
1622094429669,365406,,1686,1
1622094429669,365426,,1768,1
1622094429669,365447,,1818,1
1622094429669,365468,,1857,1
1622094429669,365489,,1945,1
1622094429669,365509,,2155,1
1622094429669,365530,,2349,0
1622094430234,365550,,2608,0
1622094430234,365570,,2796,0
1622094430234,365591,,2843,0
1622094430234,365611,,2699,0
1622094430234,365632,,2427,0
1622094430234,365652,,2145,0
1622094430234,365673,,1906,0
1622094430234,365694,,1783,0
1622094430234,365715,,1808,0
1622094430234,365736,,1765,0
1622094430234,365757,,1664,0
1622094430234,365778,,1580,0
1622094430234,365799,,1505,0
1622094430234,365819,,1594,0
1622094430234,365840,,1690,0
1622094430234,365861,,1803,0
1622094430234,365881,,1902,0
1622094430234,365902,,1927,0
1622094430234,365922,,1995,0
1622094430234,365943,,1968,0
1622094430234,365964,,1869,0
1622094430234,365985,,1755,0
1622094430234,366006,,1612,0
1622094430234,366027,,1582,0
1622094430234,366048,,1646,0
1622094430702,366068,,1726,0
1622094430702,366088,,1846,0
1622094430702,366108,,1983,0
1622094430702,366129,,2151,0
1622094430702,366150,,2284,0
1622094430702,366171,,2417,0
1622094430702,366192,,2365,0
1622094430702,366213,,2160,0
1622094430702,366234,,2058,0
1622094430702,366255,,2035,0
1622094430702,366276,,2073,0
1622094430702,366297,,1950,0
1622094430702,366318,,1760,0
1622094430702,366338,,1763,0
1622094430702,366359,,1845,0
1622094430702,366380,,1947,0
1622094430702,366401,,1927,0
1622094430702,366422,,1775,0
1622094430702,366443,,1799,0
1622094430702,366464,,1871,0
1622094430702,366485,,1946,0
1622094430702,366506,,1825,0
1622094430702,366527,,1603,0
1622094430702,366548,,1643,0
1622094430702,366568,,1691,1
1622094431591,367108,,1490,1
1622094431591,367128,,1331,1
1622094431591,367149,,1249,1
1622094431591,367170,,1268,1
1622094431591,367191,,1202,1
1622094431591,367212,,1189,1
1622094431591,367233,,1177,1
1622094431591,367253,,1279,1
1622094431591,367274,,1581,1
1622094431591,367295,,1983,1
1622094431591,367316,,2289,0
1622094431591,367336,,2416,0
1622094431591,367356,,2544,0
1622094431591,367377,,2663,0
1622094431591,367398,,2707,0
1622094431591,367419,,2541,0
1622094431591,367440,,2197,0
1622094431591,367460,,2022,0
1622094431591,367480,,1954,0
1622094431591,367501,,1968,0
1622094431591,367522,,1910,0
1622094431591,367542,,1777,0
1622094431591,367563,,1776,0
1622094431591,367584,,1760,0
1622094431591,367605,,1739,0
1622094432074,367625,,1681,0
1622094432074,367645,,1770,0
1622094432074,367666,,1858,0
1622094432074,367686,,1946,0
1622094432074,367706,,1877,0
1622094432074,367727,,1823,0
1622094432074,367748,,1771,0
1622094432074,367769,,1872,0
1622094432074,367790,,2023,0
1622094432074,367811,,2150,0
1622094432074,367832,,2041,0
1622094432074,367853,,1835,0
1622094432074,367874,,1872,0
1622094432074,367895,,2083,0
1622094432074,367916,,2410,0
1622094432074,367936,,2544,0
1622094432074,367957,,2535,0
1622094432074,367978,,2605,0
1622094432074,367999,,2618,0
1622094432074,368019,,2585,0
1622094432074,368040,,2305,0
1622094432074,368061,,1920,0
1622094432074,368082,,1754,0
1622094432074,368103,,1715,0
1622094432074,368124,,1803,0
1622094433115,368145,,1761,0
1622094433115,368165,,1892,0
1622094433115,368186,,2067,0
1622094433115,368207,,2211,0
1622094433115,368228,,2105,0
1622094433115,368249,,1933,0
1622094433115,368270,,1771,0
1622094433115,368291,,1663,0
1622094433115,368312,,1565,0
1622094433115,368333,,1510,0
1622094433115,368354,,1505,1
1622094433115,368374,,1508,1
1622094433115,368394,,1693,1
1622094433115,368415,,1882,1
1622094433115,368436,,2015,1
1622094433115,368457,,1933,1
1622094433115,368478,,1878,1
1622094433115,368499,,2037,1
1622094433115,368520,,2304,1
1622094433115,368540,,2473,1
1622094433115,368560,,2522,1
1622094433115,368581,,2519,1
1622094433115,368602,,2618,1
1622094433115,368622,,2666,1
1622094433115,368643,,2589,1
1622094433622,368663,,2293,1
1622094433622,368684,,2149,1
1622094433622,368705,,2063,1
1622094433622,368725,,2029,1
1622094433622,368746,,1873,1
1622094433622,368767,,1723,1
1622094433622,368788,,1712,1
1622094433622,368809,,1874,1
1622094433622,368830,,2064,1
1622094433622,368850,,2185,1
1622094433622,368871,,2019,1
1622094433622,368891,,1813,1
1622094433622,368912,,1440,1
1622094433622,368933,,976,1
1622094433622,368954,,576,1
1622094433622,368975,,302,1
1622094433622,368996,,359,1
1622094433622,369017,,577,1
1622094433622,369038,,943,1
1622094433622,369059,,1456,1
1622094433622,369079,,2000,1
1622094433622,369100,,2658,1
1622094433622,369121,,3200,1
1622094433622,369142,,3603,1
1622094433622,369163,,3761,1
1622094434343,369184,,3536,1
1622094434343,369204,,3346,1
1622094434343,369225,,3103,1
1622094434343,369246,,2779,1
1622094434343,369267,,2283,0
1622094434343,369287,,1792,0
1622094434343,369307,,1431,0
1622094434343,369328,,1168,0
1622094434343,369349,,1033,0
1622094434343,369370,,1040,0
1622094434343,369391,,1189,0
1622094434343,369412,,1455,0
1622094434343,369433,,1726,0
1622094434343,369454,,1951,0
1622094434343,369475,,2101,0
1622094434343,369496,,2160,0
1622094434343,369517,,2190,0
1622094434343,369537,,2143,0
1622094434343,369558,,2096,0
1622094434343,369579,,2022,0
1622094434343,369600,,1957,0
1622094434343,369621,,1903,0
1622094434343,369642,,1801,0
1622094434343,369663,,1770,0
1622094434343,369684,,1853,0
1622094435488,370224,,738,0
1622094435488,370244,,597,0
1622094435488,370265,,835,0
1622094435488,370286,,1351,0
1622094435488,370307,,1744,1
1622094435488,370328,,2123,1
1622094435488,370349,,2522,1
1622094435488,370370,,2988,0
1622094435488,370390,,3181,0
1622094435488,370411,,3049,0
1622094435488,370432,,2933,0
1622094435488,370452,,2838,0
1622094435488,370473,,2529,0
1622094435488,370493,,2112,0
1622094435488,370514,,1608,0
1622094435488,370535,,1371,0
1622094435488,370556,,1472,0
1622094435488,370577,,1809,0
1622094435488,370598,,2176,0
1622094435488,370619,,2378,0
1622094435488,370640,,2411,0
1622094435488,370661,,2218,0
1622094435488,370681,,1942,0
1622094435488,370702,,1698,0
1622094435488,370723,,1494,0
1622094435586,370743,,1359,0
1622094435586,370763,,1392,0
1622094435586,370784,,1459,0
1622094435586,370804,,1567,0
1622094435586,370825,,1483,0
1622094435586,370846,,1583,0
1622094435586,370867,,1783,0
1622094435586,370888,,2123,0
1622094435586,370908,,2383,0
1622094435586,370929,,2589,0
1622094435586,370950,,2884,0
1622094435586,370971,,3101,0
1622094435586,370991,,3163,0
1622094435586,371012,,2908,0
1622094435586,371033,,2519,0
1622094435586,371054,,2311,0
1622094435586,371075,,2153,0
1622094435586,371096,,2047,0
1622094435586,371117,,1841,0
1622094435586,371137,,1628,0
1622094435586,371158,,1636,0
1622094435586,371179,,1716,0
1622094435586,371200,,1822,0
1622094435586,371221,,1776,0
1622094435586,371241,,1702,0
1622094435639,372296,,1983,1
1622094435639,372316,,1971,1
1622094435639,372337,,1994,1
1622094435639,372358,,1931,1
1622094435639,372379,,1917,1
1622094435639,372400,,1963,1
1622094435639,372421,,2043,1
1622094435639,372442,,1936,1
1622094435639,372463,,1686,1
1622094435639,372484,,1611,1
1622094435639,372504,,1618,1
1622094435639,372525,,1694,1
1622094435639,372546,,1616,1
1622094435639,372567,,1449,1
1622094435639,372588,,1493,1
1622094435639,372609,,1618,1
1622094435639,372629,,1787,1
1622094435639,372650,,1835,1
1622094435639,372671,,1870,1
1622094435639,372692,,2167,1
1622094435639,372713,,2559,1
1622094435639,372733,,2884,1
1622094435639,372754,,3004,1
1622094435639,372774,,2926,1
1622094435639,372795,,2923,1
1622094435654,372815,,2789,1
1622094435654,372835,,2525,1
1622094435654,372856,,2256,1
1622094435654,372876,,1886,1
1622094435654,372897,,1613,1
1622094435654,372918,,1429,1
1622094435654,372939,,1421,1
1622094435654,372959,,1375,1
1622094435654,372979,,1402,1
1622094435654,373000,,1472,1
1622094435654,373021,,1477,1
1622094435654,373042,,1389,1
1622094435654,373063,,1206,1
1622094435654,373084,,919,1
1622094435654,373105,,823,1
1622094435654,373126,,784,1
1622094435654,373147,,764,1
1622094435654,373168,,702,1
1622094435654,373188,,724,1
1622094435654,373209,,979,1
1622094435654,373230,,1305,1
1622094435654,373251,,1576,1
1622094435654,373272,,1693,1
1622094435654,373292,,1817,1
1622094435654,373313,,2142,1
1622094435702,373333,,2513,1
1622094435702,373353,,2909,1
1622094435702,373374,,3246,1
1622094435702,373395,,3462,1
1622094435702,373415,,3499,0
1622094435702,373435,,3405,0
1622094435702,373456,,3153,0
1622094435702,373477,,2769,0
1622094435702,373497,,2437,0
1622094435702,373518,,2271,0
1622094435702,373539,,2192,0
1622094435702,373560,,1995,0
1622094435702,373581,,1713,0
1622094435702,373602,,1584,0
1622094435702,373623,,1667,0
1622094435702,373643,,1829,0
1622094435702,373664,,1885,0
1622094435702,373685,,1799,0
1622094435702,373705,,1775,0
1622094435702,373726,,1840,0
1622094435702,373747,,1906,0
1622094435702,373768,,1909,0
1622094435702,373789,,1818,0
1622094435702,373810,,1673,0
1622094435702,373831,,1600,0
1622094435707,373851,,1535,0
1622094435707,373871,,1501,0
1622094435707,373892,,1488,0
1622094435707,373913,,1489,0
1622094435707,373934,,1503,0
1622094435707,373955,,1378,0
1622094435707,373976,,1271,0
1622094435707,373997,,1217,0
1622094435707,374018,,1337,0
1622094435707,374039,,1576,0
1622094435707,374060,,1922,0
1622094435707,374081,,2288,0
1622094435707,374101,,2559,0
1622094435707,374122,,2774,0
1622094435707,374142,,2816,0
1622094435707,374163,,2735,0
1622094435707,374184,,2583,0
1622094435707,374205,,2411,0
1622094435707,374226,,2283,0
1622094435707,374247,,2107,0
1622094435707,374268,,1941,0
1622094435707,374289,,1840,0
1622094435707,374309,,1796,0
1622094435707,374329,,1829,0
1622094435707,374350,,1839,0
1622094435723,374371,,1805,0
1622094435723,374391,,1910,0
1622094435723,374412,,1983,0
1622094435723,374433,,2046,0
1622094435723,374454,,1903,0
1622094435723,374475,,1742,0
1622094435723,374495,,1640,0
1622094435723,374515,,1586,0
1622094435723,374536,,1571,0
1622094435723,374556,,1552,0
1622094435723,374577,,1535,0
1622094435723,374597,,1573,0
1622094435723,374617,,1613,0
1622094435723,374638,,1679,0
1622094435723,374659,,1682,0
1622094435723,374680,,1660,0
1622094435723,374701,,1628,0
1622094435723,374722,,1648,0
1622094435723,374743,,1755,0
1622094435723,374764,,1968,0
1622094435723,374784,,2256,0
1622094435723,374804,,2514,0
1622094435723,374825,,2683,0
1622094435723,374846,,2877,0
1622094435723,374866,,2938,0
1622094436083,374886,,2861,0
1622094436083,374906,,2694,0
1622094436083,374926,,2487,0
1622094436083,374946,,2330,0
1622094436083,374967,,2000,0
1622094436083,374988,,1689,0
1622094436083,375008,,1495,0
1622094436083,375029,,1386,0
1622094436083,375050,,1509,0
1622094436083,375071,,1684,0
1622094436083,375092,,1898,0
1622094436083,375113,,1898,0
1622094436083,375134,,1891,0
1622094436083,375155,,1845,0
1622094436083,375176,,1744,0
1622094436083,375197,,1643,0
1622094436083,375218,,1531,0
1622094436083,375238,,1507,0
1622094436083,375259,,1643,0
1622094436083,375280,,1770,0
1622094436083,375301,,1806,0
1622094436083,375322,,1778,0
1622094436083,375342,,1717,0
1622094436083,375363,,1661,0
1622094436083,375384,,1595,0
1622094436563,375405,,1489,0
1622094436563,375425,,1428,0
1622094436563,375445,,1417,0
1622094436563,375465,,1520,0
1622094436563,375486,,1722,0
1622094436563,375507,,1983,0
1622094436563,375527,,2240,0
1622094436563,375548,,2514,0
1622094436563,375569,,2675,0
1622094436563,375589,,2775,0
1622094436563,375610,,2651,0
1622094436563,375631,,2293,0
1622094436563,375651,,2054,0
1622094436563,375672,,1904,0
1622094436563,375692,,1805,0
1622094436563,375712,,1755,0
1622094436563,375733,,1787,0
1622094436563,375754,,1889,0
1622094436563,375775,,2005,0
1622094436563,375795,,2096,0
1622094436563,375816,,2123,0
1622094436563,375837,,2099,0
1622094436563,375858,,2055,0
1622094436563,375879,,1958,0
1622094436563,375899,,1871,0
1622094437080,375920,,1554,0
1622094437080,375940,,1382,0
1622094437080,375961,,1281,0
1622094437080,375982,,1246,0
1622094437080,376003,,1223,0
1622094437080,376024,,1168,0
1622094437080,376045,,1035,0
1622094437080,376066,,879,0
1622094437080,376086,,870,0
1622094437080,376107,,1133,0
1622094437080,376128,,1583,0
1622094437080,376148,,2146,0
1622094437080,376168,,2614,0
1622094437080,376188,,2953,0
1622094437080,376209,,3056,0
1622094437080,376230,,2909,0
1622094437080,376251,,2707,0
1622094437080,376272,,2592,0
1622094437080,376293,,2463,0
1622094437080,376314,,2352,0
1622094437080,376335,,2240,0
1622094437080,376356,,2032,0
1622094437080,376376,,1936,0
1622094437080,376397,,1842,0
1622094437080,376418,,1744,0
1622094437644,376438,,1680,0
1622094437644,376458,,1709,0
1622094437644,376479,,1785,0
1622094437644,376499,,1863,0
1622094437644,376520,,1919,0
1622094437644,376540,,1940,0
1622094437644,376561,,1935,0
1622094437644,376582,,1911,0
1622094437644,376602,,1872,1
1622094437644,376623,,1813,1
1622094437644,376644,,1722,1
1622094437644,376664,,1649,1
1622094437644,376685,,1597,1
1622094437644,376706,,1619,1
1622094437644,376727,,1594,1
1622094437644,376748,,1648,1
1622094437644,376769,,1772,1
1622094437644,376789,,2101,1
1622094437644,376810,,2385,1
1622094437644,376830,,2519,1
1622094437644,376850,,2538,1
1622094437644,376871,,2475,1
1622094437644,376892,,2383,1
1622094437644,376912,,2293,1
1622094437644,376933,,2256,1
1622094438160,376954,,2047,1
1622094438160,376974,,1995,1
1622094438160,376994,,1959,1
1622094438160,377015,,1936,1
1622094438160,377036,,1925,1
1622094438160,377056,,1913,1
1622094438160,377076,,1873,1
1622094438160,377097,,1827,1
1622094438160,377118,,1781,1
1622094438160,377138,,1791,1
1622094438160,377159,,1659,1
1622094438160,377180,,1492,1
1622094438160,377200,,1535,1
1622094438160,377220,,1639,1
1622094438160,377241,,1712,1
1622094438160,377262,,1741,1
1622094438160,377282,,1738,1
1622094438160,377303,,1685,1
1622094438160,377323,,1628,1
1622094438160,377344,,1653,1
1622094438160,377364,,1776,1
1622094438160,377384,,1967,1
1622094438160,377404,,2255,1
1622094438160,377425,,2357,1
1622094438160,377446,,2411,1
1622094438663,377467,,2383,1
1622094438663,377487,,2463,1
1622094438663,377508,,2510,1
1622094438663,377528,,2506,1
1622094438663,377549,,2432,1
1622094438663,377570,,2315,1
1622094438663,377591,,2175,1
1622094438663,377612,,2070,1
1622094438663,377633,,1984,1
1622094438663,377654,,1922,1
1622094438663,377675,,1894,1
1622094438663,377695,,1865,1
1622094438663,377716,,1890,1
1622094438663,377736,,1883,1
1622094438663,377757,,1857,1
1622094438663,377778,,1806,1
1622094438663,377799,,1749,1
1622094438663,377819,,1696,1
1622094438663,377840,,1643,1
1622094438663,377861,,1603,1
1622094438663,377882,,1558,1
1622094438663,377902,,1579,1
1622094438663,377923,,1463,1
1622094438663,377944,,1323,1
1622094438663,377964,,1246,1
1622094439142,377985,,1265,1
1622094439142,378005,,1575,1
1622094439142,378025,,1986,1
1622094439142,378046,,2384,1
1622094439142,378067,,2660,1
1622094439142,378087,,2788,1
1622094439142,378108,,2755,1
1622094439142,378129,,2613,1
1622094439142,378149,,2495,1
1622094439142,378170,,2247,1
1622094439142,378190,,1953,1
1622094439142,378210,,1765,1
1622094439142,378230,,1759,1
1622094439142,378251,,1792,1
1622094439142,378272,,1837,1
1622094439142,378293,,1859,1
1622094439142,378314,,1915,1
1622094439142,378335,,1802,1
1622094439142,378356,,1680,1
1622094439142,378377,,1589,1
1622094439142,378398,,1503,1
1622094439142,378418,,1535,1
1622094439142,378439,,1658,1
1622094439142,378460,,1679,1
1622094439142,378481,,1583,1
1622094439687,378501,,1427,1
1622094439687,378521,,1270,1
1622094439687,378541,,1209,1
1622094439687,378561,,1312,1
1622094439687,378581,,1584,1
1622094439687,378601,,1771,1
1622094439687,378622,,2080,1
1622094439687,378642,,2339,1
1622094439687,378663,,2546,1
1622094439687,378683,,2756,1
1622094439687,378704,,2894,1
1622094439687,378725,,3040,1
1622094439687,378746,,3226,1
1622094439687,378766,,3199,1
1622094439687,378787,,2993,1
1622094439687,378808,,2670,1
1622094439687,378829,,2320,1
1622094439687,378849,,1978,1
1622094439687,378869,,1643,1
1622094439687,378889,,1339,1
1622094439687,378910,,1117,1
1622094439687,378931,,921,1
1622094439687,378952,,752,1
1622094439687,378973,,725,1
1622094439687,378994,,844,1
1622094440212,379014,,1005,1
1622094440212,379034,,1304,1
1622094440212,379054,,1589,1
1622094440212,379075,,1706,1
1622094440212,379095,,1712,1
1622094440212,379115,,1714,1
1622094440212,379136,,1733,1
1622094440212,379156,,1779,1
1622094440212,379177,,1820,1
1622094440212,379198,,1879,1
1622094440212,379219,,1828,1
1622094440212,379240,,1766,1
1622094440212,379261,,1696,1
1622094440212,379282,,1633,1
1622094440212,379303,,1575,1
1622094440212,379323,,1425,1
1622094440212,379343,,1415,1
1622094440212,379363,,1488,1
1622094440212,379384,,1630,1
1622094440212,379405,,1801,1
1622094440212,379426,,1997,1
1622094440212,379447,,2152,1
1622094440212,379468,,2179,1
1622094440212,379489,,2217,1
1622094440212,379510,,2261,1
1622094440890,379530,,2245,1
1622094440890,379550,,2364,1
1622094440890,379570,,2487,1
1622094440890,379591,,2544,1
1622094440890,379612,,2559,1
1622094440890,379633,,2559,1
1622094440890,379654,,2591,1
1622094440890,379675,,2599,0
1622094440890,379695,,2591,0
1622094440890,379715,,2559,0
1622094440890,379736,,2585,0
1622094440890,379757,,2450,0
1622094440890,379777,,2253,0
1622094440890,379798,,2083,0
1622094440890,379819,,1931,0
1622094440890,379840,,1759,0
1622094440890,379861,,1728,0
1622094440890,379881,,1780,0
1622094440890,379901,,1759,0
1622094440890,379922,,1697,0
1622094440890,379943,,1607,0
1622094440890,379964,,1553,0
1622094440890,379985,,1472,0
1622094440890,380005,,1430,0
1622094440890,380026,,1303,0
1622094441439,380046,,1243,0
1622094441439,380066,,1509,0
1622094441439,380087,,1886,0
1622094441439,380107,,2319,0
1622094441439,380128,,2512,0
1622094441439,380149,,2599,0
1622094441439,380170,,2747,0
1622094441439,380191,,2837,0
1622094441439,380212,,2805,0
1622094441439,380232,,2711,0
1622094441439,380252,,2384,0
1622094441439,380273,,2065,0
1622094441439,380294,,1774,0
1622094441439,380315,,1589,0
1622094441439,380336,,1488,0
1622094441439,380356,,1459,0
1622094441439,380377,,1629,0
1622094441439,380397,,1786,0
1622094441439,380417,,1885,0
1622094441439,380438,,1892,0
1622094441439,380458,,1863,0
1622094441439,380479,,1807,0
1622094441439,380500,,1767,0
1622094441439,380521,,1686,0
1622094441439,380541,,1507,0
1622094441719,380561,,1360,0
1622094441719,380581,,1392,0
1622094441719,380602,,1463,0
1622094441719,380622,,1577,0
1622094441719,380643,,1503,0
1622094441719,380664,,1444,0
1622094441719,380684,,1559,0
1622094441719,380704,,1696,1
1622094441719,380725,,1858,1
1622094441719,380746,,2119,1
1622094441719,380767,,2293,1
1622094441719,380788,,2447,0
1622094441719,380808,,2551,0
1622094441719,380828,,2602,0
1622094441719,380849,,2557,0
1622094441719,380869,,2432,0
1622094441719,380890,,2363,0
1622094441719,380910,,2294,0
1622094441719,380931,,2186,0
1622094441719,380952,,2106,0
1622094441719,380973,,1904,0
1622094441719,380994,,1878,0
1622094441719,381014,,1917,0
1622094441719,381034,,1951,0
1622094441719,381055,,1968,0
1622094442233,381075,,1949,0
1622094442233,381095,,1909,0
1622094442233,381115,,1840,0
1622094442233,381135,,1775,0
1622094442233,381156,,1726,0
1622094442233,381176,,1681,0
1622094442233,381197,,1647,0
1622094442233,381218,,1659,0
1622094442233,381239,,1615,0
1622094442233,381260,,1452,0
1622094442233,381280,,1380,0
1622094442233,381301,,1459,0
1622094442233,381322,,1535,0
1622094442233,381343,,1614,0
1622094442233,381363,,1747,0
1622094442233,381383,,1929,0
1622094442233,381404,,2201,0
1622094442233,381425,,2304,0
1622094442233,381446,,2327,0
1622094442233,381467,,2266,0
1622094442233,381487,,2211,0
1622094442233,381508,,2221,0
1622094442233,381529,,2179,0
1622094442233,381549,,2101,0
1622094442233,381570,,1983,0
1622094442918,381590,,1889,0
1622094442918,381610,,1827,0
1622094442918,381631,,1787,0
1622094442918,381652,,1775,0
1622094442918,381673,,1776,0
1622094442918,381694,,1779,0
1622094442918,381715,,1811,0
1622094442918,381736,,1705,0
1622094442918,381757,,1618,0
1622094442918,381778,,1535,0
1622094442918,381799,,1630,0
1622094442918,381819,,1773,1
1622094442918,381840,,1882,1
1622094442918,381861,,1935,1
1622094442918,381882,,1927,1
1622094442918,381903,,1867,1
1622094442918,381924,,1789,1
1622094442918,381945,,1717,1
1622094442918,381966,,1721,1
1622094442918,381987,,1839,1
1622094442918,382008,,2123,1
1622094442918,382029,,2292,1
1622094442918,382049,,2390,0
1622094442918,382069,,2431,0
1622094442918,382090,,2352,0
1622094444107,382110,,2372,0
1622094444107,382130,,2372,0
1622094444107,382151,,2323,0
1622094444107,382172,,2211,0
1622094444107,382193,,1910,0
1622094444107,382214,,1824,0
1622094444107,382234,,1824,0
1622094444107,382255,,1843,0
1622094444107,382275,,1871,0
1622094444107,382295,,1891,0
1622094444107,382316,,1888,0
1622094444107,382337,,1925,0
1622094444107,382358,,1776,0
1622094444107,382379,,1633,0
1622094444107,382400,,1499,0
1622094444107,382421,,1578,0
1622094444107,382442,,1678,0
1622094444107,382463,,1771,0
1622094444107,382484,,1683,0
1622094444107,382504,,1558,0
1622094444107,382525,,1600,0
1622094444107,382545,,1664,0
1622094444107,382566,,1741,0
1622094444107,382587,,1919,0
1622094444107,382607,,2074,0
1622094446501,382628,,2189,0
1622094446501,382648,,2434,0
1622094446501,382669,,2652,0
1622094446501,382690,,2741,0
1622094446501,382711,,2743,0
1622094446501,382731,,2538,0
1622094446501,382752,,2255,0
1622094446501,382773,,1984,0
1622094446501,382794,,1774,0
1622094446501,382814,,1648,0
1622094446501,382835,,1713,0
1622094446501,382856,,1851,0
1622094446501,382877,,1898,0
1622094446501,382898,,1803,0
1622094446501,382918,,1753,0
1622094446501,382939,,1837,0
1622094446501,382959,,1920,0
1622094446501,382980,,1942,0
1622094446501,383001,,1929,0
1622094446501,383021,,1875,0
1622094446501,383042,,1694,0
1622094446501,383063,,1532,0
1622094446501,383084,,1448,1
1622094446501,383105,,1391,1
1622094446501,383125,,1439,1
1622094447091,383145,,1600,1
1622094447091,383165,,1721,1
1622094447091,383185,,1849,1
1622094447091,383206,,2000,1
1622094447091,383226,,2293,1
1622094447091,383247,,2437,0
1622094447091,383267,,2544,0
1622094447091,383288,,2613,0
1622094447091,383309,,2577,0
1622094447091,383330,,2526,0
1622094447091,383351,,2527,0
1622094447091,383372,,2480,0
1622094447091,383393,,2362,0
1622094447091,383413,,2225,0
1622094447091,383433,,2096,0
1622094447091,383454,,1967,0
1622094447091,383474,,1933,0
1622094447091,383495,,1895,0
1622094447091,383516,,1875,0
1622094447091,383536,,1861,0
1622094447091,383557,,1753,0
1622094447091,383578,,1667,0
1622094447091,383599,,1633,0
1622094447091,383620,,1599,0
1622094447091,383640,,1650,0
1622094447604,384181,,1847,0
1622094447604,384201,,1921,0
1622094447604,384222,,1963,0
1622094447604,384243,,1926,0
1622094447604,384264,,1835,0
1622094447604,384284,,1806,0
1622094447604,384305,,1645,0
1622094447604,384325,,1489,0
1622094447604,384345,,1364,0
1622094447604,384366,,1458,0
1622094447604,384387,,1438,0
1622094447604,384408,,1424,0
1622094447604,384429,,1447,0
1622094447604,384450,,1523,0
1622094447604,384471,,1898,0
1622094447604,384492,,2277,0
1622094447604,384512,,2627,0
1622094447604,384532,,2703,0
1622094447604,384553,,2663,0
1622094447604,384574,,2534,0
1622094447604,384595,,2342,0
1622094447604,384616,,2150,0
1622094447604,384637,,1970,0
1622094447604,384658,,1899,0
1622094447604,384679,,1843,0
1622094447638,385737,,2439,0
1622094447638,385757,,2919,0
1622094447638,385778,,3513,0
1622094447638,385798,,4000,0
1622094447638,385819,,4002,0
1622094447638,385840,,4001,0
1622094447638,385861,,4004,0
1622094447638,385881,,3824,0
1622094447638,385902,,3310,0
1622094447638,385922,,2858,0
1622094447638,385943,,2525,0
1622094447638,385964,,2290,0
1622094447638,385985,,2137,0
1622094447638,386006,,2096,0
1622094447638,386027,,2063,0
1622094447638,386048,,2005,0
1622094447638,386069,,1985,0
1622094447638,386089,,2019,0
1622094447638,386110,,2041,0
1622094447638,386131,,1973,0
1622094447638,386151,,1901,0
1622094447638,386172,,1809,0
1622094447638,386193,,1744,0
1622094447638,386214,,1626,0
1622094447638,386235,,1447,0
1622094448223,386255,,1216,0
1622094448223,386275,,1275,0
1622094448223,386296,,1462,0
1622094448223,386317,,1670,0
1622094448223,386338,,1584,0
1622094448223,386359,,1390,0
1622094448223,386379,,1244,0
1622094448223,386399,,1217,0
1622094448223,386420,,1535,0
1622094448223,386441,,2006,0
1622094448223,386462,,2403,0
1622094448223,386483,,2721,0
1622094448223,386504,,2912,0
1622094448223,386525,,2842,0
1622094448223,386545,,2750,0
1622094448223,386566,,2718,0
1622094448223,386587,,2704,0
1622094448223,386607,,2721,0
1622094448223,386628,,2747,0
1622094448223,386649,,2624,0
1622094448223,386670,,2310,0
1622094448223,386691,,1820,0
1622094448223,386712,,1321,0
1622094448223,386733,,787,0
1622094448223,386754,,466,0
1622094448240,386774,,380,0
1622094448240,386794,,651,0
1622094448240,386815,,1125,1
1622094448240,386835,,1579,1
1622094448240,386856,,1749,1
1622094448240,386877,,1776,1
1622094448240,386898,,1593,1
1622094448240,386919,,1403,1
1622094448240,386940,,1203,1
1622094448240,386961,,1034,1
1622094448240,386982,,777,1
1622094448240,387003,,526,1
1622094448240,387023,,643,1
1622094448240,387044,,966,1
1622094448240,387064,,1331,1
1622094448240,387085,,1733,1
1622094448240,387106,,2064,1
1622094448240,387127,,2457,1
1622094448240,387148,,2694,1
1622094448240,387169,,2851,1
1622094448240,387190,,2911,1
1622094448240,387211,,2794,1
1622094448240,387232,,2703,1
1622094448240,387253,,2518,1
1622094448240,387273,,2263,1
1622094448832,387294,,1803,1
1622094448832,387314,,1531,1
1622094448832,387335,,1362,1
1622094448832,387356,,1253,1
1622094448832,387376,,1201,1
1622094448832,387396,,1207,1
1622094448832,387416,,1245,1
1622094448832,387437,,1341,1
1622094448832,387458,,1431,1
1622094448832,387479,,1594,1
1622094448832,387500,,1610,1
1622094448832,387520,,1552,1
1622094448832,387540,,1648,1
1622094448832,387561,,1728,1
1622094448832,387582,,1734,1
1622094448832,387603,,1707,1
1622094448832,387624,,1680,1
1622094448832,387645,,1667,1
1622094448832,387666,,1689,1
1622094448832,387687,,1535,1
1622094448832,387708,,1359,1
1622094448832,387729,,1227,1
1622094448832,387749,,1289,1
1622094448832,387770,,1415,1
1622094448832,387791,,1521,0
1622094451811,387812,,1478,0
1622094451811,387832,,1645,0
1622094451811,387853,,1957,0
1622094451811,387874,,2322,0
1622094451811,387895,,2512,0
1622094451811,387915,,2559,0
1622094451811,387935,,2523,0
1622094451811,387956,,2543,0
1622094451811,387976,,2480,0
1622094451811,387996,,2358,0
1622094451811,388017,,2183,0
1622094451811,388038,,2017,0
1622094451811,388059,,1819,0
1622094451811,388080,,1701,0
1622094451811,388101,,1721,0
1622094451811,388122,,1771,0
1622094451811,388142,,1856,0
1622094451811,388163,,2023,0
1622094451811,388184,,2170,0
1622094451811,388204,,2211,0
1622094451811,388225,,2053,0
1622094451811,388245,,1914,0
1622094451811,388266,,1801,0
1622094451811,388287,,1681,0
1622094451811,388308,,1456,0
1622094454176,388329,,1167,0
1622094454176,388349,,1136,0
1622094454176,388370,,1237,0
1622094454176,388391,,1366,0
1622094454176,388412,,1447,0
1622094454176,388432,,1603,0
1622094454176,388452,,1998,0
1622094454176,388473,,2509,0
1622094454176,388494,,3069,0
1622094454176,388515,,3278,0
1622094454176,388536,,3141,0
1622094454176,388556,,2937,0
1622094454176,388577,,2757,0
1622094454176,388598,,2595,0
1622094454176,388619,,2320,0
1622094454176,388640,,1968,0
1622094454176,388660,,1833,0
1622094454176,388681,,1760,0
1622094454176,388702,,1725,0
1622094454176,388723,,1535,0
1622094454176,388744,,1327,0
1622094454176,388765,,1351,0
1622094454176,388786,,1457,0
1622094454176,388806,,1554,0
1622094454176,388827,,1614,0
1622094456981,389367,,954,1
1622094456981,389387,,941,1
1622094456981,389408,,995,1
1622094456981,389429,,1100,1
1622094456981,389450,,1072,1
1622094456981,389470,,1088,1
1622094456981,389491,,1293,1
1622094456981,389512,,1559,1
1622094456981,389533,,1623,1
1622094456981,389554,,1438,1
1622094456981,389574,,1264,1
1622094456981,389595,,1202,1
1622094456981,389616,,1244,1
1622094456981,389637,,1213,1
1622094456981,389658,,1117,1
1622094456981,389678,,1175,1
1622094456981,389698,,1454,1
1622094456981,389719,,1822,1
1622094456981,389740,,2064,1
1622094456981,389761,,2115,1
1622094456981,389781,,2209,1
1622094456981,389801,,2251,1
1622094456981,389821,,2266,1
1622094456981,389842,,2245,1
1622094456981,389863,,2151,1
1622094457576,390403,,2410,0
1622094457576,390423,,2714,0
1622094457576,390443,,2902,0
1622094457576,390464,,2960,0
1622094457576,390484,,2862,0
1622094457576,390505,,2685,0
1622094457576,390526,,2507,0
1622094457576,390547,,2257,0
1622094457576,390568,,2134,0
1622094457576,390589,,2158,0
1622094457576,390610,,2240,0
1622094457576,390631,,2195,0
1622094457576,390652,,1974,0
1622094457576,390673,,1647,0
1622094457576,390694,,1328,0
1622094457576,390714,,1179,0
1622094457576,390735,,1124,0
1622094457576,390756,,1164,0
1622094457576,390777,,1212,0
1622094457576,390798,,1234,0
1622094457576,390819,,1250,0
1622094457576,390840,,1311,0
1622094457576,390861,,1522,0
1622094457576,390882,,1797,0
1622094457576,390902,,2130,0
1622094459822,392998,,1598,1
1622094459822,393018,,1610,1
1622094459822,393039,,1677,1
1622094459822,393060,,1760,1
1622094459822,393081,,1767,1
1622094459822,393102,,1874,1
1622094459822,393123,,2087,1
1622094459822,393144,,2279,1
1622094459822,393165,,2522,1
1622094459822,393186,,2610,1
1622094459822,393207,,2583,1
1622094459822,393227,,2484,1
1622094459822,393248,,2350,1
1622094459822,393269,,2250,1
1622094459822,393290,,2119,1
1622094459822,393311,,2017,1
1622094459822,393332,,1965,1
1622094459822,393353,,1941,1
1622094459822,393374,,1973,1
1622094459822,393395,,1953,1
1622094459822,393416,,1904,1
1622094459822,393437,,1837,1
1622094459822,393457,,1765,1
1622094459822,393478,,1727,1
1622094459822,393499,,1653,1
1622094461498,395080,,2131,0
1622094461498,395100,,2065,0
1622094461498,395121,,1920,0
1622094461498,395141,,1825,0
1622094461498,395162,,1623,0
1622094461498,395183,,1434,0
1622094461498,395204,,1421,0
1622094461498,395225,,1488,0
1622094461498,395246,,1584,0
1622094461498,395267,,1669,0
1622094461498,395287,,1724,0
1622094461498,395307,,1787,0
1622094461498,395328,,1793,0
1622094461498,395349,,1767,0
1622094461498,395370,,1712,0
1622094461498,395391,,1619,0
1622094461498,395412,,1615,0
1622094461498,395433,,1591,0
1622094461498,395454,,1637,0
1622094461498,395475,,1777,0
1622094461498,395496,,1951,0
1622094461498,395516,,2224,0
1622094461498,395537,,2353,0
1622094461498,395558,,2384,0
1622094461498,395579,,2305,0
1622094462133,395600,,2106,0
1622094462133,395620,,2012,0
1622094462133,395641,,1943,0
1622094462133,395662,,1830,0
1622094462133,395683,,1631,0
1622094462133,395704,,1488,0
1622094462133,395725,,1509,0
1622094462133,395745,,1534,0
1622094462133,395766,,1587,0
1622094462133,395787,,1668,0
1622094462133,395808,,1744,0
1622094462133,395829,,1823,0
1622094462133,395850,,1797,0
1622094462133,395871,,1709,0
1622094462133,395892,,1591,0
1622094462133,395913,,1474,0
1622094462133,395934,,1458,0
1622094462133,395955,,1425,0
1622094462133,395975,,1410,0
1622094462133,395996,,1434,0
1622094462133,396017,,1488,0
1622094462133,396038,,1591,0
1622094462133,396059,,1697,0
1622094462133,396080,,1856,0
1622094462133,396101,,2046,0
1622094462423,396121,,2186,0
1622094462423,396141,,2398,0
1622094462423,396162,,2546,0
1622094462423,396182,,2643,0
1622094462423,396202,,2522,0
1622094462423,396223,,2353,0
1622094462423,396244,,2192,0
1622094462423,396265,,1930,0
1622094462423,396286,,1617,0
1622094462423,396307,,1301,0
1622094462423,396328,,1086,0
1622094462423,396349,,1007,0
1622094462423,396370,,1040,0
1622094462423,396391,,1190,0
1622094462423,396412,,1408,0
1622094462423,396432,,1619,0
1622094462423,396453,,1771,0
1622094462423,396474,,1801,0
1622094462423,396495,,1767,0
1622094462423,396516,,1693,0
1622094462423,396536,,1671,0
1622094462423,396557,,1655,0
1622094462423,396578,,1630,0
1622094462423,396599,,1610,0
1622094462423,396620,,1531,0
1622094462510,397159,,2240,0
1622094462510,397179,,2288,0
1622094462510,397199,,2263,0
1622094462510,397220,,2192,0
1622094462510,397241,,1909,0
1622094462510,397262,,1738,0
1622094462510,397283,,1616,0
1622094462510,397304,,1627,0
1622094462510,397325,,1781,0
1622094462510,397345,,1939,0
1622094462510,397366,,2259,0
1622094462510,397387,,2533,0
1622094462510,397408,,2735,0
1622094462510,397429,,2661,0
1622094462510,397450,,2461,0
1622094462510,397471,,2411,0
1622094462510,397492,,2373,0
1622094462510,397512,,2327,0
1622094462510,397533,,2112,0
1622094462510,397554,,1885,0
1622094462510,397574,,1890,0
1622094462510,397595,,1951,0
1622094462510,397615,,2033,0
1622094462510,397636,,1936,0
1622094462510,397657,,1761,0
1622094462553,397677,,1773,0
1622094462553,397697,,1799,0
1622094462553,397718,,1823,0
1622094462553,397739,,1765,0
1622094462553,397759,,1571,0
1622094462553,397780,,1579,0
1622094462553,397800,,1655,0
1622094462553,397820,,1786,0
1622094462553,397841,,1742,0
1622094462553,397862,,1631,0
1622094462553,397883,,1681,0
1622094462553,397904,,1783,0
1622094462553,397925,,1929,0
1622094462553,397946,,1962,0
1622094462553,397967,,1968,0
1622094462553,397988,,2167,0
1622094462553,398009,,2309,0
1622094462553,398029,,2416,0
1622094462553,398049,,2330,0
1622094462553,398069,,2205,0
1622094462553,398090,,2107,0
1622094462553,398111,,1962,0
1622094462553,398132,,1836,0
1622094462553,398153,,1731,0
1622094462553,398174,,1729,0
1622094462638,398714,,1896,0
1622094462638,398734,,1879,0
1622094462638,398755,,1889,0
1622094462638,398776,,1802,0
1622094462638,398797,,1776,0
1622094462638,398818,,1839,0
1622094462638,398839,,1873,0
1622094462638,398860,,1879,0
1622094462638,398881,,1715,0
1622094462638,398902,,1600,0
1622094462638,398923,,1470,0
1622094462638,398943,,1381,0
1622094462638,398963,,1333,0
1622094462638,398984,,1308,0
1622094462638,399005,,1344,0
1622094462638,399026,,1365,0
1622094462638,399047,,1392,1
1622094462638,399068,,1479,1
1622094462638,399089,,1674,1
1622094462638,399110,,1968,1
1622094462638,399131,,2224,1
1622094462638,399152,,2391,1
1622094462638,399172,,2432,1
1622094462638,399193,,2385,1
1622094462638,399214,,2295,1
1622094462711,399234,,2102,1
1622094462711,399254,,2054,1
1622094462711,399275,,1998,1
1622094462711,399295,,1887,1
1622094462711,399316,,1658,1
1622094462711,399337,,1424,1
1622094462711,399358,,1278,1
1622094462711,399379,,1215,1
1622094462711,399399,,1235,1
1622094462711,399420,,1315,1
1622094462711,399441,,1389,1
1622094462711,399462,,1467,1
1622094462711,399483,,1561,1
1622094462711,399503,,1648,1
1622094462711,399524,,1724,1
1622094462711,399545,,1769,1
1622094462711,399566,,1806,1
1622094462711,399587,,1830,1
1622094462711,399607,,1843,1
1622094462711,399627,,1959,1
1622094462711,399648,,2034,1
1622094462711,399669,,2031,1
1622094462711,399690,,1933,1
1622094462711,399711,,1941,1
1622094462711,399732,,2133,1
1622094462722,399753,,2405,1
1622094462722,399773,,2546,1
1622094462722,399794,,2608,1
1622094462722,399815,,2613,0
1622094462722,399835,,2457,0
1622094462722,399855,,2307,0
1622094462722,399875,,2192,0
1622094462722,399896,,2101,0
1622094462722,399917,,2080,0
1622094462722,399938,,2055,0
1622094462722,399959,,2047,0
1622094462722,399980,,2069,0
1622094462722,400001,,2085,0
1622094462722,400021,,2147,0
1622094462722,400042,,2240,0
1622094462722,400063,,2283,0
1622094462722,400083,,2129,0
1622094462722,400104,,1830,0
1622094462722,400124,,1626,0
1622094462722,400145,,1581,0
1622094462722,400166,,1599,0
1622094462722,400187,,1594,0
1622094462722,400208,,1447,0
1622094462722,400229,,1470,0
1622094462722,400250,,1603,0
1622094462738,400270,,1744,0
1622094462738,400290,,1930,0
1622094462738,400310,,2130,0
1622094462738,400330,,2348,0
1622094462738,400350,,2363,0
1622094462738,400370,,2319,0
1622094462738,400391,,2244,0
1622094462738,400412,,2103,0
1622094462738,400432,,2059,0
1622094462738,400453,,2055,0
1622094462738,400474,,2062,0
1622094462738,400495,,1904,0
1622094462738,400516,,1668,0
1622094462738,400536,,1616,0
1622094462738,400557,,1706,0
1622094462738,400578,,1840,0
1622094462738,400599,,1853,0
1622094462738,400620,,1772,0
1622094462738,400641,,1775,0
1622094462738,400662,,1742,0
1622094462738,400683,,1712,0
1622094462738,400704,,1680,0
1622094462738,400725,,1654,0
1622094462738,400746,,1668,0
1622094462738,400766,,1654,0
1622094462754,400787,,1602,0
1622094462754,400807,,1712,0
1622094462754,400828,,1855,0
1622094462754,400849,,1977,0
1622094462754,400870,,2002,0
1622094462754,400891,,2066,0
1622094462754,400912,,2135,0
1622094462754,400933,,2192,0
1622094462754,400954,,2237,0
1622094462754,400975,,2211,0
1622094462754,400995,,2172,0
1622094462754,401016,,2122,0
1622094462754,401036,,2064,0
1622094462754,401057,,2005,0
1622094462754,401078,,1936,0
1622094462754,401099,,1891,0
1622094462754,401120,,1883,0
1622094462754,401141,,1925,0
1622094462754,401162,,1963,0
1622094462754,401183,,1971,0
1622094462754,401204,,1967,0
1622094462754,401224,,1943,0
1622094462754,401244,,1904,0
1622094462754,401265,,1840,0
1622094462754,401286,,1744,0
1622094462759,401307,,1616,0
1622094462759,401327,,1651,0
1622094462759,401348,,1709,0
1622094462759,401369,,1698,1
1622094462759,401390,,1552,1
1622094462759,401411,,1466,1
1622094462759,401432,,1504,1
1622094462759,401452,,1744,1
1622094462759,401473,,1994,1
1622094462759,401494,,2206,1
1622094462759,401515,,2334,0
1622094462759,401535,,2337,0
1622094462759,401556,,2351,0
1622094462759,401577,,2257,0
1622094462759,401598,,2130,0
1622094462759,401619,,1988,0
1622094462759,401640,,1837,0
1622094462759,401660,,1807,0
1622094462759,401680,,1885,0
1622094462759,401701,,2010,0
1622094462759,401722,,1978,0
1622094462759,401743,,1775,0
1622094462759,401763,,1703,0
1622094462759,401784,,1695,0
1622094462759,401805,,1712,0
1622094463023,401826,,1535,0
1622094463023,401846,,1485,0
1622094463023,401867,,1483,0
1622094463023,401888,,1477,0
1622094463023,401908,,1491,0
1622094463023,401929,,1437,0
1622094463023,401950,,1266,0
1622094463023,401971,,1223,0
1622094463023,401992,,1209,0
1622094463023,402013,,1328,0
1622094463023,402034,,1584,0
1622094463023,402055,,1854,0
1622094463023,402076,,2182,0
1622094463023,402097,,2434,0
1622094463023,402117,,2610,0
1622094463023,402137,,2543,0
1622094463023,402157,,2419,0
1622094463023,402178,,2366,0
1622094463023,402199,,2250,0
1622094463023,402220,,2106,0
1622094463023,402241,,1947,0
1622094463023,402262,,1748,0
1622094463023,402282,,1806,0
1622094463023,402303,,1870,0
1622094463023,402324,,1861,0
1622094463539,402344,,1797,0
1622094463539,402364,,1711,0
1622094463539,402384,,1625,0
1622094463539,402405,,1535,0
1622094463539,402426,,1470,0
1622094463539,402447,,1424,0
1622094463539,402468,,1407,0
1622094463539,402489,,1433,0
1622094463539,402510,,1502,0
1622094463539,402531,,1584,0
1622094463539,402551,,1715,1
1622094463539,402571,,1712,1
1622094463539,402591,,1733,1
1622094463539,402612,,1837,1
1622094463539,402633,,2075,1
1622094463539,402654,,2375,0
1622094463539,402674,,2624,0
1622094463539,402694,,2881,0
1622094463539,402715,,3111,0
1622094463539,402736,,3135,0
1622094463539,402757,,3063,0
1622094463539,402777,,2814,0
1622094463539,402797,,2554,0
1622094463539,402817,,2317,0
1622094463539,402838,,2131,0
1622094464265,402858,,1947,0
1622094464265,402878,,1938,0
1622094464265,402898,,1981,0
1622094464265,402919,,2112,0
1622094464265,402940,,2320,0
1622094464265,402961,,2559,0
1622094464265,402982,,2824,0
1622094464265,403003,,2815,0
1622094464265,403024,,2618,0
1622094464265,403044,,2366,0
1622094464265,403065,,2146,0
1622094464265,403086,,1930,0
1622094464265,403107,,1942,0
1622094464265,403128,,2002,0
1622094464265,403149,,2057,0
1622094464265,403170,,1875,0
1622094464265,403190,,1729,0
1622094464265,403210,,1792,0
1622094464265,403231,,1934,0
1622094464265,403252,,2141,0
1622094464265,403272,,2343,0
1622094464265,403292,,2541,0
1622094464265,403313,,2525,0
1622094464265,403334,,2421,0
1622094464265,403355,,2320,0
1622094464666,403375,,2183,0
1622094464666,403395,,2192,0
1622094464666,403415,,2270,0
1622094464666,403436,,2299,0
1622094464666,403457,,2302,0
1622094464666,403478,,2194,0
1622094464666,403498,,2075,0
1622094464666,403519,,1970,0
1622094464666,403540,,1919,0
1622094464666,403561,,1916,0
1622094464666,403582,,1945,0
1622094464666,403602,,1999,0
1622094464666,403623,,2189,0
1622094464666,403644,,2301,0
1622094464666,403665,,2375,0
1622094464666,403686,,2215,1
1622094464666,403706,,2044,1
1622094464666,403726,,1999,1
1622094464666,403747,,1930,1
1622094464666,403767,,1875,1
1622094464666,403788,,1597,1
1622094464666,403808,,1466,1
1622094464666,403829,,1424,1
1622094464666,403850,,1520,1
1622094464666,403871,,1714,1
1622094465048,403891,,1882,1
1622094465048,403911,,2162,1
1622094465048,403932,,2458,1
1622094465048,403952,,2591,1
1622094465048,403973,,2630,1
1622094465048,403994,,2395,1
1622094465048,404014,,2178,1
1622094465048,404035,,1946,1
1622094465048,404056,,1758,1
1622094465048,404077,,1662,1
1622094465048,404098,,1611,1
1622094465048,404118,,1715,1
1622094465048,404139,,1932,1
1622094465048,404160,,2096,1
1622094465048,404180,,2200,1
1622094465048,404201,,2013,1
1622094465048,404221,,1887,1
1622094465048,404242,,1827,1
1622094465048,404263,,1764,1
1622094465048,404283,,1741,1
1622094465048,404304,,1494,1
1622094465048,404324,,1360,1
1622094465048,404345,,1337,1
1622094465048,404366,,1318,1
1622094465048,404387,,1328,1
1622094465567,404407,,1456,1
1622094465567,404427,,1744,1
1622094465567,404448,,2135,1
1622094465567,404469,,2511,1
1622094465567,404490,,2837,0
1622094465567,404510,,3010,0
1622094465567,404531,,3039,0
1622094465567,404552,,2917,0
1622094465567,404572,,2738,0
1622094465567,404593,,2321,0
1622094465567,404614,,1826,0
1622094465567,404634,,1553,0
1622094465567,404655,,1409,0
1622094465567,404676,,1355,0
1622094465567,404697,,1355,0
1622094465567,404718,,1413,0
1622094465567,404739,,1484,0
1622094465567,404759,,1597,0
1622094465567,404780,,1552,0
1622094465567,404801,,1486,0
1622094465567,404822,,1422,0
1622094465567,404843,,1561,0
1622094465567,404863,,1715,0
1622094465567,404884,,1831,0
1622094465567,404904,,1903,0
1622094466084,404924,,1906,0
1622094466084,404944,,1867,0
1622094466084,404965,,1783,0
1622094466084,404986,,1692,0
1622094466084,405007,,1520,0
1622094466084,405028,,1456,0
1622094466084,405049,,1712,0
1622094466084,405070,,2063,0
1622094466084,405090,,2325,0
1622094466084,405111,,2469,0
1622094466084,405131,,2459,0
1622094466084,405152,,2367,0
1622094466084,405173,,2247,0
1622094466084,405194,,2128,0
1622094466084,405215,,2042,0
1622094466084,405236,,1812,0
1622094466084,405257,,1803,0
1622094466084,405278,,1850,0
1622094466084,405299,,1921,0
1622094466084,405319,,1986,0
1622094466084,405339,,2026,0
1622094466084,405360,,2032,0
1622094466084,405381,,2011,0
1622094466084,405401,,1969,0
1622094466084,405422,,1920,0
1622094466602,405442,,1866,0
1622094466602,405462,,1817,0
1622094466602,405483,,1765,0
1622094466602,405504,,1711,0
1622094466602,405525,,1673,1
1622094466602,405545,,1712,1
1622094466602,405566,,1678,1
1622094466602,405587,,1599,1
1622094466602,405608,,1568,1
1622094466602,405629,,1607,1
1622094466602,405649,,1779,1
1622094466602,405670,,2199,1
1622094466602,405691,,2627,1
1622094466602,405711,,2943,1
1622094466602,405732,,3120,1
1622094466602,405753,,3125,1
1622094466602,405773,,3022,1
1622094466602,405794,,2906,1
1622094466602,405815,,2620,1
1622094466602,405836,,2259,1
1622094466602,405856,,2043,1
1622094466602,405876,,1991,1
1622094466602,405897,,1978,1
1622094466602,405918,,1982,1
1622094466602,405939,,1967,1
1622094467241,405959,,1941,1
1622094467241,405979,,1910,1
1622094467241,405999,,1863,1
1622094467241,406020,,1840,1
1622094467241,406041,,1649,1
1622094467241,406061,,1493,1
1622094467241,406081,,1503,1
1622094467241,406102,,1584,1
1622094467241,406122,,1685,1
1622094467241,406143,,1791,1
1622094467241,406164,,1883,1
1622094467241,406185,,1961,1
1622094467241,406206,,1973,1
1622094467241,406226,,1849,1
1622094467241,406247,,1733,1
1622094467241,406267,,1827,1
1622094467241,406287,,2112,1
1622094467241,406308,,2400,1
1622094467241,406329,,2588,1
1622094467241,406350,,2688,1
1622094467241,406371,,2623,1
1622094467241,406392,,2407,1
1622094467241,406413,,2176,1
1622094467241,406434,,1953,1
1622094467241,406454,,1718,1
1622094467636,406474,,1641,1
1622094467636,406494,,1684,1
1622094467636,406515,,1790,1
1622094467636,406536,,1922,1
1622094467636,406556,,2065,1
1622094467636,406577,,2113,1
1622094467636,406598,,2065,1
1622094467636,406619,,1997,1
1622094467636,406640,,1919,1
1622094467636,406661,,1765,1
1622094467636,406681,,1747,1
1622094467636,406702,,1799,1
1622094467636,406723,,1829,1
1622094467636,406744,,1848,1
1622094467636,406765,,1795,1
1622094467636,406786,,1696,1
1622094467636,406807,,1584,1
1622094467636,406828,,1570,1
1622094467636,406849,,1715,1
1622094467636,406870,,1946,1
1622094467636,406891,,2393,1
1622094467636,406911,,2774,0
1622094467636,406931,,2999,0
1622094467636,406952,,3029,0
1622094467636,406973,,2944,0
1622094468279,406993,,2583,0
1622094468279,407013,,2324,0
1622094468279,407034,,2128,0
1622094468279,407055,,1943,0
1622094468279,407076,,1696,0
1622094468279,407097,,1561,0
1622094468279,407118,,1510,0
1622094468279,407138,,1573,0
1622094468279,407159,,1668,0
1622094468279,407179,,1737,0
1622094468279,407200,,1926,0
1622094468279,407220,,2064,0
1622094468279,407241,,2099,0
1622094468279,407262,,2085,0
1622094468279,407282,,1953,0
1622094468279,407303,,1757,0
1622094468279,407324,,1572,0
1622094468279,407345,,1443,0
1622094468279,407365,,1369,0
1622094468279,407386,,1293,0
1622094468279,407407,,1382,0
1622094468279,407428,,1587,0
1622094468279,407449,,1802,0
1622094468279,407470,,2062,0
1622094468279,407490,,2327,0
1622094468882,407511,,2322,0
1622094468882,407531,,2377,0
1622094468882,407552,,2413,0
1622094468882,407573,,2322,0
1622094468882,407593,,2128,0
1622094468882,407614,,2074,0
1622094468882,407635,,2044,0
1622094468882,407656,,1970,0
1622094468882,407677,,1872,0
1622094468882,407697,,1834,0
1622094468882,407718,,1776,0
1622094468882,407739,,1659,0
1622094468882,407760,,1584,0
1622094468882,407781,,1521,0
1622094468882,407801,,1568,0
1622094468882,407821,,1571,0
1622094468882,407842,,1535,0
1622094468882,407863,,1505,0
1622094468882,407884,,1438,0
1622094468882,407905,,1444,0
1622094468882,407926,,1552,0
1622094468882,407947,,1654,1
1622094468882,407968,,1677,1
1622094468882,407989,,1666,1
1622094468882,408010,,1601,1
1622094469191,408030,,1472,1
1622094469191,408050,,1661,1
1622094469191,408071,,2027,1
1622094469191,408092,,2371,1
1622094469191,408113,,2610,0
1622094469191,408133,,2741,0
1622094469191,408154,,2764,0
1622094469191,408175,,2656,0
1622094469191,408196,,2477,0
1622094469191,408217,,2318,0
1622094469191,408238,,2177,0
1622094469191,408259,,2112,0
1622094469191,408279,,1936,0
1622094469191,408299,,1818,0
1622094469191,408320,,1877,0
1622094469191,408341,,1955,0
1622094469191,408362,,2032,0
1622094469191,408383,,2088,0
1622094469191,408404,,2022,0
1622094469191,408425,,2104,0
1622094469191,408446,,2121,0
1622094469191,408467,,2045,0
1622094469191,408488,,1911,0
1622094469191,408508,,1793,0
1622094469191,408529,,1681,0
1622094469847,408549,,1618,0
1622094469847,408569,,1597,0
1622094469847,408590,,1614,0
1622094469847,408611,,1602,0
1622094469847,408632,,1520,0
1622094469847,408653,,1461,0
1622094469847,408674,,1573,0
1622094469847,408695,,1837,0
1622094469847,408716,,2139,0
1622094469847,408736,,2549,0
1622094469847,408757,,2864,0
1622094469847,408778,,3005,0
1622094469847,408799,,2843,0
1622094469847,408820,,2544,0
1622094469847,408841,,2410,0
1622094469847,408862,,2256,0
1622094469847,408883,,2071,0
1622094469847,408904,,1951,0
1622094469847,408924,,1812,0
1622094469847,408945,,1675,0
1622094469847,408965,,1630,0
1622094469847,408986,,1658,0
1622094469847,409007,,1726,0
1622094469847,409028,,1794,0
1622094469847,409049,,1967,0
1622094470229,409069,,2062,0
1622094470229,409089,,2075,0
1622094470229,409109,,2006,0
1622094470229,409130,,1910,0
1622094470229,409151,,1863,1
1622094470229,409172,,1723,1
1622094470229,409192,,1535,1
1622094470229,409213,,1424,1
1622094470229,409234,,1387,1
1622094470229,409255,,1573,1
1622094470229,409275,,1861,1
1622094470229,409296,,2194,1
1622094470229,409317,,2585,1
1622094470229,409338,,2817,0
1622094470229,409358,,2832,0
1622094470229,409379,,2748,0
1622094470229,409400,,2619,0
1622094470229,409420,,2430,0
1622094470229,409440,,2306,0
1622094470229,409461,,2244,0
1622094470229,409482,,2166,0
1622094470229,409503,,2029,0
1622094470229,409524,,1911,0
1622094470229,409545,,1817,0
1622094470229,409566,,1834,0
1622094471150,409586,,1729,0
1622094471150,409606,,1711,0
1622094471150,409627,,1738,0
1622094471150,409647,,1775,0
1622094471150,409668,,1648,0
1622094471150,409689,,1522,0
1622094471150,409710,,1450,0
1622094471150,409731,,1372,0
1622094471150,409752,,1427,0
1622094471150,409773,,1562,0
1622094471150,409794,,1665,0
1622094471150,409815,,1675,0
1622094471150,409836,,1641,0
1622094471150,409857,,1520,0
1622094471150,409877,,1465,0
1622094471150,409897,,1610,0
1622094471150,409918,,1882,0
1622094471150,409939,,2170,0
1622094471150,409960,,2477,0
1622094471150,409981,,2688,0
1622094471150,410001,,2706,0
1622094471150,410022,,2601,0
1622094471150,410043,,2414,0
1622094471150,410064,,2263,0
1622094471150,410085,,1963,0
1622094471512,410105,,1679,0
1622094471512,410125,,1641,0
1622094471512,410146,,1668,0
1622094471512,410167,,1761,0
1622094471512,410188,,1689,0
1622094471512,410209,,1623,0
1622094471512,410230,,1594,0
1622094471512,410251,,1552,0
1622094471512,410272,,1637,0
1622094471512,410293,,1715,0
1622094471512,410314,,1742,0
1622094471512,410334,,1719,0
1622094471512,410354,,1655,0
1622094471512,410375,,1499,1
1622094471512,410396,,1353,1
1622094471512,410417,,1267,1
1622094471512,410438,,1255,1
1622094471512,410459,,1253,1
1622094471512,410480,,1409,1
1622094471512,410500,,1619,1
1622094471512,410521,,1898,1
1622094471512,410542,,2195,1
1622094471512,410562,,2527,1
1622094471512,410583,,2638,1
1622094471512,410603,,2640,1
1622094471781,410623,,2557,1
1622094471781,410643,,2589,1
1622094471781,410664,,2624,1
1622094471781,410685,,2619,1
1622094471781,410706,,2443,1
1622094471781,410727,,2266,1
1622094471781,410748,,2111,1
1622094471781,410769,,2031,1
1622094471781,410789,,2127,1
1622094471781,410810,,2221,1
1622094471781,410831,,2247,1
1622094471781,410852,,2191,1
1622094471781,410872,,2110,1
1622094471781,410893,,2016,1
1622094471781,410914,,1945,1
1622094471781,410935,,1907,1
1622094471781,410956,,1882,1
1622094471781,410976,,1865,1
1622094471781,410997,,1845,1
1622094471781,411017,,1818,1
1622094471781,411038,,1803,1
1622094471781,411059,,1801,1
1622094471781,411079,,1809,1
1622094471781,411099,,1815,1
1622094471781,411119,,1805,1
1622094472888,411139,,1771,1
1622094472888,411159,,1735,1
1622094472888,411179,,1751,1
1622094472888,411200,,1936,1
1622094472888,411221,,2064,1
1622094472888,411241,,2224,1
1622094472888,411262,,2350,1
1622094472888,411282,,2455,1
1622094472888,411303,,2635,1
1622094472888,411324,,2705,0
1622094472888,411344,,2653,0
1622094472888,411365,,2506,0
1622094472888,411386,,2310,0
1622094472888,411407,,1989,0
1622094472888,411428,,1715,0
1622094472888,411449,,1559,0
1622094472888,411469,,1482,0
1622094472888,411489,,1535,0
1622094472888,411510,,1712,0
1622094472888,411531,,1854,0
1622094472888,411552,,1926,0
1622094472888,411573,,1937,0
1622094472888,411594,,1898,0
1622094472888,411615,,1709,0
1622094472888,411636,,1535,0
1622094472999,411656,,1398,0
1622094472999,411676,,1524,0
1622094472999,411696,,1648,0
1622094472999,411716,,1765,0
1622094472999,411737,,1678,0
1622094472999,411758,,1554,0
1622094472999,411779,,1444,0
1622094472999,411800,,1615,0
1622094472999,411821,,1925,0
1622094472999,411842,,2323,0
1622094472999,411863,,2506,0
1622094472999,411883,,2508,0
1622094472999,411904,,2502,0
1622094472999,411924,,2379,0
1622094472999,411945,,2219,0
1622094472999,411966,,2035,0
1622094472999,411987,,1803,0
1622094472999,412008,,1755,0
1622094472999,412029,,1776,0
1622094472999,412050,,1833,0
1622094472999,412071,,1905,0
1622094472999,412092,,2021,0
1622094472999,412113,,2051,0
1622094472999,412134,,1967,0
1622094472999,412154,,1889,0
1622094473402,412174,,1775,0
1622094473402,412194,,1877,0
1622094473402,412215,,1913,0
1622094473402,412236,,1930,0
1622094473402,412257,,1773,0
1622094473402,412278,,1611,0
1622094473402,412299,,1461,0
1622094473402,412320,,1520,0
1622094473402,412341,,1623,0
1622094473402,412362,,1693,0
1622094473402,412382,,1594,0
1622094473402,412402,,1567,0
1622094473402,412423,,1694,0
1622094473402,412444,,1904,0
1622094473402,412465,,2147,0
1622094473402,412486,,2350,0
1622094473402,412507,,2448,0
1622094473402,412527,,2608,0
1622094473402,412547,,2657,0
1622094473402,412568,,2607,0
1622094473402,412589,,2448,0
1622094473402,412609,,2230,0
1622094473402,412630,,2019,0
1622094473402,412651,,1739,0
1622094473402,412672,,1559,0
1622094473912,412692,,1456,0
1622094473912,412712,,1605,0
1622094473912,412733,,1771,0
1622094473912,412753,,1876,0
1622094473912,412774,,1741,0
1622094473912,412795,,1521,0
1622094473912,412815,,1298,0
1622094473912,412835,,1286,0
1622094473912,412856,,1312,0
1622094473912,412877,,1393,0
1622094473912,412898,,1472,0
1622094473912,412919,,1535,0
1622094473912,412939,,1603,0
1622094473912,412960,,1653,0
1622094473912,412981,,1658,0
1622094473912,413002,,1677,0
1622094473912,413022,,1776,0
1622094473912,413043,,1979,0
1622094473912,413063,,2197,0
1622094473912,413084,,2394,0
1622094473912,413104,,2515,0
1622094473912,413124,,2559,0
1622094473912,413145,,2512,0
1622094473912,413166,,2443,0
1622094473912,413187,,2220,0
1622094475154,413208,,1914,0
1622094475154,413228,,1837,0
1622094475154,413249,,1845,0
1622094475154,413270,,1857,0
1622094475154,413290,,1789,0
1622094475154,413311,,1718,0
1622094475154,413332,,1744,0
1622094475154,413353,,1869,0
1622094475154,413374,,1971,0
1622094475154,413395,,2031,0
1622094475154,413416,,2064,0
1622094475154,413437,,2064,0
1622094475154,413458,,2087,0
1622094475154,413479,,2007,0
1622094475154,413500,,1855,0
1622094475154,413520,,1703,0
1622094475154,413541,,1697,0
1622094475154,413562,,1780,0
1622094475154,413583,,1843,0
1622094475154,413604,,1859,0
1622094475154,413625,,1867,0
1622094475154,413645,,1967,0
1622094475154,413666,,1998,0
1622094475154,413687,,2086,0
1622094475154,413708,,2176,0
1622094477481,413729,,2195,0
1622094477481,413749,,2326,0
1622094477481,413769,,2419,0
1622094477481,413790,,2449,0
1622094477481,413811,,2290,0
1622094477481,413832,,2069,0
1622094477481,413853,,2009,0
1622094477481,413874,,2000,0
1622094477481,413894,,2000,0
1622094477481,413914,,1984,0
1622094477481,413935,,1943,0
1622094477481,413956,,1941,0
1622094477481,413976,,1817,0
1622094477481,413997,,1647,0
1622094477481,414018,,1519,0
1622094477481,414039,,1423,0
1622094477481,414060,,1517,0
1622094477481,414081,,1645,0
1622094477481,414101,,1727,0
1622094477481,414122,,1755,1
1622094477481,414143,,1798,1
1622094477481,414164,,1712,1
1622094477481,414185,,1570,1
1622094477481,414205,,1477,1
1622094477481,414226,,1462,1
1622094481369,414246,,1532,1
1622094481369,414266,,1857,1
1622094481369,414287,,2194,1
1622094481369,414307,,2476,1
1622094481369,414327,,2626,1
1622094481369,414347,,2659,1
1622094481369,414368,,2581,1
1622094481369,414389,,2480,1
1622094481369,414410,,2206,1
1622094481369,414430,,1888,1
1622094481369,414450,,1602,1
1622094481369,414471,,1525,1
1622094481369,414492,,1511,1
1622094481369,414512,,1565,1
1622094481369,414533,,1637,1
1622094481369,414554,,1715,1
1622094481369,414575,,1857,1
1622094481369,414596,,1800,1
1622094481369,414617,,1726,1
1622094481369,414638,,1666,1
1622094481369,414658,,1594,1
1622094481369,414679,,1661,1
1622094481369,414700,,1730,1
1622094481369,414721,,1759,1
1622094481369,414742,,1737,1
1622094485073,416320,,1744,0
1622094485073,416340,,1899,0
1622094485073,416361,,2010,0
1622094485073,416381,,2073,0
1622094485073,416402,,1949,0
1622094485073,416423,,1777,0
1622094485073,416444,,1613,0
1622094485073,416465,,1501,0
1622094485073,416485,,1449,0
1622094485073,416506,,1556,0
1622094485073,416527,,1623,0
1622094485073,416548,,1665,0
1622094485073,416569,,1705,0
1622094485073,416590,,1706,0
1622094485073,416611,,1840,0
1622094485073,416632,,1997,0
1622094485073,416653,,2227,0
1622094485073,416674,,2477,0
1622094485073,416694,,2641,0
1622094485073,416714,,2786,0
1622094485073,416734,,2743,0
1622094485073,416755,,2623,0
1622094485073,416776,,2442,0
1622094485073,416797,,2231,0
1622094485073,416818,,2091,0
1622094485564,417355,,2340,1
1622094485564,417375,,2256,1
1622094485564,417395,,2197,1
1622094485564,417416,,2125,1
1622094485564,417437,,1987,1
1622094485564,417458,,1870,1
1622094485564,417479,,1803,1
1622094485564,417500,,1766,1
1622094485564,417521,,1695,1
1622094485564,417542,,1751,1
1622094485564,417563,,1813,1
1622094485564,417584,,1813,1
1622094485564,417605,,1777,1
1622094485564,417625,,1775,1
1622094485564,417646,,1636,1
1622094485564,417667,,1471,1
1622094485564,417688,,1371,1
1622094485564,417709,,1361,1
1622094485564,417730,,1462,1
1622094485564,417751,,1660,1
1622094485564,417772,,1958,1
1622094485564,417793,,2310,1
1622094485564,417814,,2624,1
1622094485564,417834,,2837,1
1622094485564,417854,,2899,1
1622094485793,418392,,2583,1
1622094485793,418412,,3055,1
1622094485793,418432,,3367,1
1622094485793,418452,,3475,1
1622094485793,418472,,3215,1
1622094485793,418493,,2899,1
1622094485793,418514,,2624,1
1622094485793,418534,,2373,1
1622094485793,418554,,2259,1
1622094485793,418575,,2163,1
1622094485793,418596,,2081,1
1622094485793,418617,,1999,1
1622094485793,418638,,1878,1
1622094485793,418659,,1866,1
1622094485793,418680,,1799,1
1622094485793,418701,,1744,1
1622094485793,418722,,1732,1
1622094485793,418743,,1719,1
1622094485793,418763,,1771,1
1622094485793,418784,,1738,1
1622094485793,418805,,1671,1
1622094485793,418826,,1615,1
1622094485793,418847,,1570,1
1622094485793,418868,,1620,1
1622094485793,418889,,1665,1
1622094485977,418910,,1682,1
1622094485977,418930,,1925,1
1622094485977,418951,,2258,1
1622094485977,418972,,2480,1
1622094485977,418992,,2527,1
1622094485977,419012,,2498,1
1622094485977,419033,,2450,1
1622094485977,419054,,2384,1
1622094485977,419075,,2337,1
1622094485977,419096,,2219,1
1622094485977,419117,,2057,1
1622094485977,419138,,1872,1
1622094485977,419159,,1723,1
1622094485977,419180,,1650,1
1622094485977,419201,,1587,1
1622094485977,419221,,1517,1
1622094485977,419242,,1379,1
1622094485977,419262,,1197,1
1622094485977,419283,,1111,1
1622094485977,419304,,1227,1
1622094485977,419325,,1587,1
1622094485977,419346,,2019,1
1622094485977,419367,,2320,1
1622094485977,419388,,2436,1
1622094485977,419409,,2400,1
1622094486078,419429,,2103,1
1622094486078,419449,,1737,1
1622094486078,419469,,1310,1
1622094486078,419490,,919,1
1622094486078,419511,,913,1
1622094486078,419532,,1383,1
1622094486078,419553,,2206,1
1622094486078,419574,,3200,0
1622094486078,419594,,3984,0
1622094486078,419615,,3999,0
1622094486078,419636,,3998,0
1622094486078,419657,,3987,0
1622094486078,419677,,3932,0
1622094486078,419698,,3527,0
1622094486078,419719,,3024,0
1622094486078,419740,,2502,0
1622094486078,419761,,2031,0
1622094486078,419782,,1723,0
1622094486078,419803,,1600,0
1622094486078,419824,,1648,0
1622094486078,419845,,1861,0
1622094486078,419866,,2159,0
1622094486078,419886,,2535,0
1622094486078,419906,,2835,0
1622094486078,419927,,2955,0
1622094486280,419947,,2829,0
1622094486280,419967,,2711,0
1622094486280,419987,,2538,0
1622094486280,420008,,2297,0
1622094486280,420029,,1921,0
1622094486280,420050,,1675,0
1622094486280,420071,,1662,0
1622094486280,420091,,1999,0
1622094486280,420112,,2463,0
1622094486280,420132,,2849,0
1622094486280,420153,,2918,0
1622094486280,420174,,2559,0
1622094486280,420195,,2111,0
1622094486280,420216,,1517,0
1622094486280,420237,,974,0
