localTime,remoteTime,label,bvp,signalOK
1622094381658,729000,,1112,1
1622094381658,729020,,1164,1
1622094381658,729040,,1244,1
1622094381658,729060,,1323,1
1622094381658,729080,,1222,1
1622094381658,729100,,1280,1
1622094381658,729120,,1363,1
1622094381658,729140,,1470,1
1622094381658,729160,,1414,1
1622094381658,729180,,1322,1
1622094381658,729200,,1397,1
1622094381658,729221,,1493,1
1622094381658,729241,,1599,1
1622094381658,729261,,1518,1
1622094381658,729281,,1396,1
1622094381658,729301,,1450,1
1622094381658,729321,,1527,1
1622094381658,729341,,1613,1
1622094381658,729361,,1520,1
1622094381658,729381,,1392,1
1622094381658,729401,,1569,1
1622094381658,729421,,1953,1
1622094381658,729442,,2544,1
1622094381658,729462,,3228,1
1622094381658,729482,,4003,1
1622094381673,729502,,4000,1
1622094381673,729522,,4001,1
1622094381673,729542,,4005,1
1622094381673,729562,,4011,1
1622094381673,729582,,4000,1
1622094381673,729602,,4014,1
1622094381673,729622,,4010,1
1622094381673,729642,,3120,1
1622094381673,729663,,2455,1
1622094381673,729683,,1863,1
1622094381673,729703,,1447,1
1622094381673,729723,,1147,1
1622094381673,729743,,995,1
1622094381673,729763,,1018,1
1622094381673,729783,,1151,1
1622094381673,729803,,1394,1
1622094381673,729823,,1627,1
1622094381673,729843,,1775,1
1622094381673,729863,,1854,1
1622094381673,729884,,1843,1
1622094381673,729904,,1818,1
1622094381673,729924,,1718,1
1622094381673,729944,,1588,1
1622094381673,729964,,1445,1
1622094381673,729984,,1328,1
1622094381693,730506,,4000,1
1622094381693,730526,,4003,1
1622094381693,730547,,4011,1
1622094381693,730567,,4006,1
1622094381693,730587,,4010,1
1622094381693,730607,,4001,1
1622094381693,730627,,4001,1
1622094381693,730647,,3807,1
1622094381693,730667,,3058,1
1622094381693,730687,,2353,1
1622094381693,730707,,1717,1
1622094381693,730728,,1233,1
1622094381693,730748,,1058,1
1622094381693,730769,,1119,1
1622094381693,730789,,1174,1
1622094381693,730809,,1222,1
1622094381693,730829,,1392,1
1622094381693,730849,,1667,1
1622094381693,730869,,1907,1
1622094381693,730889,,1969,1
1622094381693,730909,,1853,1
1622094381693,730929,,1697,1
1622094381693,730949,,1649,1
1622094381693,730969,,1597,1
1622094381693,730990,,1532,1
1622094381704,731011,,1422,1
1622094381704,731031,,1360,1
1622094381704,731051,,1287,1
1622094381704,731071,,1279,1
1622094381704,731091,,1211,1
1622094381704,731111,,1127,1
1622094381704,731131,,1123,1
1622094381704,731151,,1168,1
1622094381704,731171,,1222,1
1622094381704,731191,,1307,1
1622094381704,731212,,1378,1
1622094381704,731232,,1458,1
1622094381704,731252,,1530,1
1622094381704,731272,,1552,1
1622094381704,731292,,1559,1
1622094381704,731312,,1555,1
1622094381704,731332,,1567,1
1622094381704,731352,,1574,1
1622094381704,731372,,1543,1
1622094381704,731393,,1524,1
1622094381704,731413,,1584,1
1622094381704,731434,,1803,1
1622094381704,731454,,2210,1
1622094381704,731474,,2763,1
1622094381704,731494,,3526,1
1622094381738,731514,,3998,1
1622094381738,731534,,4003,1
1622094381738,731554,,4007,1
1622094381738,731574,,4011,1
1622094381738,731594,,4005,1
1622094381738,731614,,4013,1
1622094381738,731634,,3237,1
1622094381738,731655,,2626,1
1622094381738,731675,,2064,1
1622094381738,731695,,1604,1
1622094381738,731715,,1266,1
1622094381738,731735,,1040,1
1622094381738,731755,,1076,1
1622094381738,731775,,1328,1
1622094381738,731795,,1577,1
1622094381738,731815,,1840,1
1622094381738,731835,,1872,1
1622094381738,731855,,1922,1
1622094381738,731876,,1991,1
1622094381738,731896,,2007,1
1622094381738,731916,,1899,1
1622094381738,731936,,1644,1
1622094381738,731956,,1502,1
1622094381738,731976,,1360,1
1622094381738,731996,,1250,1
1622094381740,732016,,1164,1
1622094381740,732036,,1260,1
1622094381740,732056,,1392,1
1622094381740,732076,,1406,1
1622094381740,732097,,1333,1
1622094381740,732117,,1282,1
1622094381740,732137,,1264,1
1622094381740,732157,,1300,1
1622094381740,732177,,1471,1
1622094381740,732197,,1643,1
1622094381740,732217,,1690,1
1622094381740,732237,,1606,1
1622094381740,732257,,1497,1
1622094381740,732277,,1555,1
1622094381740,732297,,1613,1
1622094381740,732318,,1671,1
1622094381740,732338,,1638,1
1622094381740,732358,,1722,1
1622094381740,732378,,2163,1
1622094381740,732398,,2701,1
1622094381740,732418,,3632,1
1622094381740,732438,,4010,1
1622094381740,732458,,3999,1
1622094381740,732478,,4009,1
1622094381740,732498,,3999,1
1622094381754,732519,,4006,1
1622094381754,732540,,4001,1
1622094381754,732560,,3469,1
1622094381754,732580,,2795,1
1622094381754,732600,,2278,1
1622094381754,732620,,1827,1
1622094381754,732640,,1409,1
1622094381754,732660,,1019,1
1622094381754,732680,,903,1
1622094381754,732700,,921,1
1622094381754,732720,,1076,1
1622094381754,732740,,1312,1
1622094381754,732761,,1515,1
1622094381754,732781,,1802,1
1622094381754,732801,,2023,1
1622094381754,732821,,2154,1
1622094381754,732841,,2015,1
1622094381754,732861,,1774,1
1622094381754,732881,,1611,1
1622094381754,732901,,1525,1
1622094381754,732921,,1513,1
1622094381754,732941,,1374,1
1622094381754,732961,,1187,1
1622094381754,732982,,1143,1
1622094381754,733002,,1220,1
1622094381757,733023,,1299,1
1622094381757,733043,,1373,1
1622094381757,733063,,1424,1
1622094381757,733083,,1454,1
1622094381757,733103,,1477,1
1622094381757,733123,,1534,1
1622094381757,733143,,1470,1
1622094381757,733163,,1331,1
1622094381757,733183,,1277,1
1622094381757,733204,,1336,1
1622094381757,733224,,1410,1
1622094381757,733244,,1416,1
1622094381757,733264,,1356,1
1622094381757,733284,,1434,1
1622094381757,733304,,1938,1
1622094381757,733324,,2557,1
1622094381757,733344,,3349,1
1622094381757,733364,,4005,1
1622094381757,733384,,4002,1
1622094381757,733404,,4009,1
1622094381757,733425,,4006,1
1622094381757,733445,,4011,1
1622094381757,733465,,4006,1
1622094381757,733485,,4003,1
1622094381757,733505,,3611,1
1622094381939,733526,,2962,1
1622094381939,733546,,2474,1
1622094381939,733566,,2043,1
1622094381939,733586,,1563,1
1622094381939,733606,,1289,1
1622094381939,733626,,1198,1
1622094381939,733647,,1300,1
1622094381939,733667,,1369,1
1622094381939,733687,,1408,1
1622094381939,733707,,1644,1
1622094381939,733727,,1839,1
1622094381939,733747,,1981,1
1622094381939,733767,,1901,1
1622094381939,733787,,1708,1
1622094381939,733807,,1629,1
1622094381939,733827,,1589,1
1622094381939,733847,,1574,1
1622094381939,733868,,1440,1
1622094381939,733888,,1226,1
1622094381939,733908,,1212,1
1622094381939,733928,,1283,1
1622094381939,733948,,1340,1
1622094381939,733968,,1383,1
1622094381939,733988,,1418,1
1622094381939,734008,,1446,1
1622094382442,734029,,1483,1
1622094382442,734049,,1495,1
1622094382442,734069,,1511,1
1622094382442,734090,,1543,1
1622094382442,734110,,1577,1
1622094382442,734130,,1589,1
1622094382442,734150,,1593,1
1622094382442,734170,,1595,1
1622094382442,734190,,1435,1
1622094382442,734210,,1401,1
1622094382442,734230,,1546,1
1622094382442,734250,,1773,1
1622094382442,734270,,2177,1
1622094382442,734290,,2739,1
1622094382442,734310,,3609,1
1622094382442,734330,,4010,1
1622094382442,734350,,4016,1
1622094382442,734370,,4006,1
1622094382442,734390,,4007,1
1622094382442,734410,,4011,1
1622094382442,734430,,4006,1
1622094382442,734450,,4009,1
1622094382442,734470,,4009,1
1622094382442,734490,,3398,1
1622094382442,734510,,2656,1
1622094383150,734530,,2025,1
1622094383150,734550,,1515,1
1622094383150,734570,,1262,1
1622094383150,734590,,1136,1
1622094383150,734610,,1104,1
1622094383150,734630,,1226,1
1622094383150,734650,,1405,1
1622094383150,734670,,1593,1
1622094383150,734690,,1743,1
1622094383150,734710,,1767,1
1622094383150,734730,,1903,1
1622094383150,734751,,1947,1
1622094383150,734771,,1889,1
1622094383150,734791,,1782,1
1622094383150,734811,,1629,1
1622094383150,734831,,1488,1
1622094383150,734851,,1359,1
1622094383150,734871,,1278,1
1622094383150,734891,,1237,1
1622094383150,734911,,1236,1
1622094383150,734931,,1310,1
1622094383150,734951,,1277,1
1622094383150,734972,,1237,1
1622094383150,734992,,1259,1
1622094383150,735012,,1262,1
1622094383673,735032,,1407,1
1622094383673,735052,,1591,1
1622094383673,735072,,1692,1
1622094383673,735092,,1744,1
1622094383673,735112,,1586,1
1622094383673,735132,,1519,1
1622094383673,735152,,1424,1
1622094383673,735172,,1401,1
1622094383673,735193,,1517,1
1622094383673,735213,,1829,1
1622094383673,735233,,2385,1
1622094383673,735253,,3216,1
1622094383673,735273,,4007,1
1622094383673,735293,,4009,1
1622094383673,735313,,4008,1
1622094383673,735333,,4011,1
1622094383673,735353,,4005,1
1622094383673,735373,,4015,1
1622094383673,735393,,4007,1
1622094383673,735414,,4011,1
1622094383673,735434,,3028,1
1622094383673,735454,,2432,1
1622094383673,735474,,1909,1
1622094383673,735494,,1463,1
1622094383673,735514,,1188,1
1622094384593,735534,,1053,1
1622094384593,735554,,1099,1
1622094384593,735574,,1270,1
1622094384593,735594,,1486,1
1622094384593,735614,,1701,1
1622094384593,735635,,1819,1
1622094384593,735655,,1763,1
1622094384593,735675,,1647,1
1622094384593,735695,,1520,1
1622094384593,735715,,1414,1
1622094384593,735735,,1286,1
1622094384593,735755,,1322,1
1622094384593,735775,,1365,1
1622094384593,735795,,1365,1
1622094384593,735815,,1386,1
1622094384593,735835,,1237,1
1622094384593,735856,,1147,1
1622094384593,735876,,1081,1
1622094384593,735896,,1089,1
1622094384593,735916,,1148,1
1622094384593,735936,,1184,1
1622094384593,735956,,1351,1
1622094384593,735976,,1552,1
1622094384593,735996,,1659,1
1622094384593,736016,,1687,1
1622094384822,736036,,1679,1
1622094384822,736056,,1651,1
1622094384822,736077,,1585,1
1622094384822,736097,,1520,1
1622094384822,736117,,1520,1
1622094384822,736137,,1378,1
1622094384822,736157,,1296,1
1622094384822,736177,,1232,1
1622094384822,736197,,1271,1
1622094384822,736217,,1499,1
1622094384822,736237,,1947,1
1622094384822,736257,,2624,1
1622094384822,736277,,4002,1
1622094384822,736298,,4005,1
1622094384822,736318,,4005,1
1622094384822,736338,,4002,1
1622094384822,736358,,4007,1
1622094384822,736378,,4010,1
1622094384822,736398,,4011,1
1622094384822,736418,,4007,1
1622094384822,736438,,4009,1
1622094384822,736458,,4004,1
1622094384822,736478,,4007,1
1622094384822,736498,,2832,1
1622094384822,736519,,2126,1
1622094385587,736539,,1434,1
1622094385587,736559,,1085,1
1622094385587,736579,,1003,1
1622094385587,736599,,1053,1
1622094385587,736619,,1136,1
1622094385587,736639,,1283,1
1622094385587,736659,,1446,1
1622094385587,736679,,1585,1
1622094385587,736699,,1622,1
1622094385587,736719,,1601,1
1622094385587,736740,,1531,1
1622094385587,736760,,1409,1
1622094385587,736780,,1421,1
1622094385587,736800,,1423,1
1622094385587,736820,,1390,1
1622094385587,736840,,1328,1
1622094385587,736860,,1317,1
1622094385587,736880,,1200,1
1622094385587,736900,,1074,1
1622094385587,736920,,1011,1
1622094385587,736940,,1035,1
1622094385587,736961,,1056,1
1622094385587,736981,,1244,1
1622094385587,737001,,1431,1
1622094385587,737021,,1558,1
1622094386016,737042,,1616,1
1622094386016,737062,,1632,1
1622094386016,737082,,1605,1
1622094386016,737102,,1568,1
1622094386016,737122,,1511,1
1622094386016,737142,,1469,1
1622094386016,737162,,1411,1
1622094386016,737183,,1313,1
1622094386016,737203,,1211,1
1622094386016,737223,,1212,1
1622094386016,737243,,1376,1
1622094386016,737263,,1725,1
1622094386016,737283,,2422,1
1622094386016,737303,,3408,1
1622094386016,737323,,4003,1
1622094386016,737343,,4014,1
1622094386016,737363,,4003,1
1622094386016,737383,,4014,1
1622094386016,737404,,4013,1
1622094386016,737424,,4013,1
1622094386016,737444,,4007,1
1622094386016,737464,,4007,1
1622094386016,737484,,4006,1
1622094386016,737504,,2977,1
1622094386016,737524,,2263,1
1622094386086,737545,,1655,1
1622094386086,737565,,1232,1
1622094386086,737585,,982,1
1622094386086,737605,,944,1
1622094386086,737626,,1072,1
1622094386086,737646,,1275,1
1622094386086,737666,,1502,1
1622094386086,737686,,1686,1
1622094386086,737706,,1776,1
1622094386086,737726,,1782,1
1622094386086,737746,,1759,1
1622094386086,737766,,1642,1
1622094386086,737786,,1422,1
1622094386086,737806,,1219,1
1622094386086,737826,,1080,1
1622094386086,737847,,1003,1
1622094386086,737867,,995,1
1622094386086,737887,,993,1
1622094386086,737907,,1155,1
1622094386086,737927,,1309,1
1622094386086,737947,,1413,1
1622094386086,737967,,1504,1
1622094386086,737987,,1371,1
1622094386086,738007,,1369,1
1622094386086,738027,,1425,1
1622094386469,738048,,1487,1
1622094386469,738069,,1504,1
1622094386469,738089,,1547,1
1622094386469,738109,,1462,1
1622094386469,738129,,1346,1
1622094386469,738149,,1275,1
1622094386469,738169,,1249,1
1622094386469,738189,,1211,1
1622094386469,738209,,1333,1
1622094386469,738229,,1505,1
1622094386469,738249,,1712,1
1622094386469,738269,,2047,1
1622094386469,738290,,2570,1
1622094386469,738310,,3196,1
1622094386469,738330,,4005,1
1622094386469,738350,,4011,1
1622094386469,738370,,4006,1
1622094386469,738390,,4007,1
1622094386469,738410,,4009,1
1622094386469,738430,,3759,1
1622094386469,738450,,3167,1
1622094386469,738470,,2681,1
1622094386469,738490,,2209,1
1622094386469,738511,,1700,1
1622094386469,738531,,1311,1
1622094387174,738552,,1041,1
1622094387174,738572,,944,1
1622094387174,738592,,1007,1
1622094387174,738612,,1175,1
1622094387174,738632,,1395,1
1622094387174,738652,,1597,1
1622094387174,738672,,1791,1
1622094387174,738692,,1766,1
1622094387174,738712,,1670,1
1622094387174,738733,,1683,1
1622094387174,738753,,1680,1
1622094387174,738773,,1622,1
1622094387174,738793,,1535,1
1622094387174,738813,,1430,1
1622094387174,738833,,1366,1
1622094387174,738853,,1158,1
1622094387174,738873,,1021,1
1622094387174,738893,,979,1
1622094387174,738913,,967,1
1622094387174,738933,,1193,1
1622094387174,738954,,1358,1
1622094387174,738974,,1472,1
1622094387174,738994,,1552,1
1622094387174,739014,,1581,1
1622094387174,739034,,1599,1
1622094387468,739054,,1448,1
1622094387468,739074,,1457,1
1622094387468,739094,,1525,1
1622094387468,739114,,1514,1
1622094387468,739134,,1451,1
1622094387468,739154,,1364,1
1622094387468,739175,,1322,1
1622094387468,739195,,1312,1
1622094387468,739215,,1328,1
1622094387468,739235,,1616,1
1622094387468,739255,,2071,1
1622094387468,739275,,2657,1
1622094387468,739295,,3371,1
1622094387468,739315,,4011,1
1622094387468,739335,,4013,1
1622094387468,739355,,4009,1
1622094387468,739375,,4011,1
1622094387468,739396,,4011,1
1622094387468,739416,,3999,1
1622094387468,739436,,3728,1
1622094387468,739456,,3119,1
1622094387468,739476,,2642,1
1622094387468,739496,,2193,1
1622094387468,739516,,1782,1
1622094387468,739536,,1392,1
1622094388091,739557,,1154,1
1622094388091,739577,,1069,1
1622094388091,739597,,1109,1
1622094388091,739618,,1264,1
1622094388091,739638,,1470,1
1622094388091,739658,,1554,1
1622094388091,739678,,1616,1
1622094388091,739698,,1661,1
1622094388091,739718,,1647,1
1622094388091,739738,,1648,1
1622094388091,739758,,1710,1
1622094388091,739778,,1707,1
1622094388091,739798,,1639,1
1622094388091,739818,,1546,1
1622094388091,739839,,1429,1
1622094388091,739859,,1350,1
1622094388091,739879,,1291,1
1622094388091,739899,,1264,1
1622094388091,739919,,1264,1
1622094388091,739939,,1282,1
1622094388091,739959,,1325,1
1622094388091,739979,,1261,1
1622094388091,739999,,1222,1
1622094388091,740019,,1230,1
1622094388091,740039,,1251,1
1622094388509,740059,,1428,1
1622094388509,740079,,1591,1
1622094388509,740099,,1679,1
1622094388509,740119,,1703,1
1622094388509,740139,,1684,1
1622094388509,740159,,1642,1
1622094388509,740179,,1584,1
1622094388509,740199,,1522,1
1622094388509,740219,,1487,1
1622094388509,740239,,1515,1
1622094388509,740259,,1679,1
1622094388509,740280,,2078,1
1622094388509,740300,,2512,1
1622094388509,740320,,3099,1
1622094388509,740340,,3847,1
1622094388509,740360,,4006,1
1622094388509,740380,,4011,1
1622094388509,740400,,4012,1
1622094388509,740420,,4005,1
1622094388509,740440,,4015,1
1622094388509,740460,,4013,1
1622094388509,740480,,3206,1
1622094388509,740501,,2531,1
1622094388509,740521,,1970,1
1622094388509,740541,,1516,1
1622094389098,740562,,1242,1
1622094389098,740582,,1175,1
1622094389098,740602,,1223,1
1622094389098,740622,,1347,1
1622094389098,740642,,1507,1
1622094389098,740662,,1675,1
1622094389098,740682,,1809,1
1622094389098,740702,,1878,1
1622094389098,740723,,1889,1
1622094389098,740743,,1859,1
1622094389098,740763,,1734,1
1622094389098,740783,,1510,1
1622094389098,740803,,1339,1
1622094389098,740823,,1228,1
1622094389098,740843,,1142,1
1622094389098,740863,,1159,1
1622094389098,740883,,1285,1
1622094389098,740903,,1392,1
1622094389098,740923,,1461,1
1622094389098,740944,,1482,1
1622094389098,740964,,1463,1
1622094389098,740984,,1440,1
1622094389098,741004,,1423,1
1622094389098,741024,,1414,1
1622094389098,741044,,1452,1
1622094389476,741064,,1381,1
1622094389476,741084,,1408,1
1622094389476,741104,,1484,1
1622094389476,741124,,1473,1
1622094389476,741144,,1398,1
1622094389476,741165,,1372,1
1622094389476,741185,,1385,1
1622094389476,741205,,1389,1
1622094389476,741225,,1401,1
1622094389476,741245,,1435,1
1622094389476,741265,,1494,1
1622094389476,741285,,1818,1
1622094389476,741305,,2238,1
1622094389476,741325,,2880,1
1622094389476,741345,,3669,1
1622094389476,741365,,4004,1
1622094389476,741386,,4007,1
1622094389476,741406,,4006,1
1622094389476,741426,,4009,1
1622094389476,741446,,4004,1
1622094389476,741466,,3490,1
1622094389476,741486,,2992,1
1622094389476,741506,,2615,1
1622094389476,741526,,2282,1
1622094389476,741546,,1903,1
1622094390335,741566,,1558,1
1622094390335,741586,,1321,1
1622094390335,741607,,1200,1
1622094390335,741627,,1230,1
1622094390335,741647,,1356,1
1622094390335,741667,,1524,1
1622094390335,741687,,1712,1
1622094390335,741707,,1843,1
1622094390335,741727,,1914,1
1622094390335,741747,,1909,1
1622094390335,741767,,1871,1
1622094390335,741787,,1839,1
1622094390335,741807,,1619,1
1622094390335,741828,,1424,1
1622094390335,741848,,1281,1
1622094390335,741868,,1181,1
1622094390335,741888,,1179,1
1622094390335,741908,,1303,1
1622094390335,741928,,1399,1
1622094390335,741948,,1459,1
1622094390335,741968,,1375,1
1622094390335,741988,,1311,1
1622094390335,742008,,1415,1
1622094390335,742028,,1514,1
1622094390335,742049,,1577,1
1622094390517,742070,,1599,1
1622094390517,742090,,1614,1
1622094390517,742110,,1602,1
1622094390517,742130,,1582,1
1622094390517,742150,,1551,1
1622094390517,742170,,1523,1
1622094390517,742190,,1551,1
1622094390517,742210,,1487,1
1622094390517,742230,,1553,1
1622094390517,742250,,1863,1
1622094390517,742271,,2375,1
1622094390517,742291,,2982,1
1622094390517,742311,,4005,1
1622094390517,742331,,4009,1
1622094390517,742351,,4006,1
1622094390517,742371,,4001,1
1622094390517,742391,,3999,1
1622094390517,742411,,4014,1
1622094390517,742431,,3453,1
1622094390517,742451,,2845,1
1622094390517,742471,,2320,1
1622094390517,742491,,1795,1
1622094390517,742511,,1413,1
1622094390517,742531,,1136,1
1622094390517,742551,,1036,1
1622094391009,742572,,1088,1
1622094391009,742592,,1225,1
1622094391009,742612,,1429,1
1622094391009,742632,,1627,1
1622094391009,742652,,1826,1
1622094391009,742672,,1845,1
1622094391009,742692,,1709,1
1622094391009,742713,,1707,1
1622094391009,742733,,1714,1
1622094391009,742753,,1681,1
1622094391009,742773,,1621,1
1622094391009,742793,,1534,1
1622094391009,742813,,1443,1
1622094391009,742833,,1369,1
1622094391009,742853,,1317,1
1622094391009,742873,,1309,1
1622094391009,742893,,1252,1
1622094391009,742913,,1221,1
1622094391009,742934,,1186,1
1622094391009,742954,,1209,1
1622094391009,742974,,1271,1
1622094391009,742994,,1322,1
1622094391009,743014,,1435,1
1622094391009,743034,,1608,1
1622094391009,743054,,1712,1
1622094391689,743075,,1755,1
1622094391689,743095,,1740,1
1622094391689,743115,,1689,1
1622094391689,743135,,1627,1
1622094391689,743156,,1564,1
1622094391689,743176,,1554,1
1622094391689,743196,,1658,1
1622094391689,743216,,1951,1
1622094391689,743236,,2453,1
1622094391689,743256,,2964,1
1622094391689,743276,,3645,1
1622094391689,743296,,4009,1
1622094391689,743316,,4005,1
1622094391689,743336,,4004,1
1622094391689,743356,,4010,1
1622094391689,743377,,4002,1
1622094391689,743397,,4004,1
1622094391689,743417,,3515,1
1622094391689,743437,,2935,1
1622094391689,743457,,2352,1
1622094391689,743477,,1785,1
1622094391689,743497,,1330,1
1622094391689,743517,,1008,1
1622094391689,743537,,1017,1
1622094391689,743557,,1168,1
1622094391997,743578,,1425,1
1622094391997,743599,,1664,1
1622094391997,743619,,1849,1
1622094391997,743639,,1978,1
1622094391997,743659,,1893,1
1622094391997,743679,,1772,1
1622094391997,743699,,1655,1
1622094391997,743719,,1507,1
1622094391997,743739,,1522,1
1622094391997,743759,,1547,1
1622094391997,743779,,1526,1
1622094391997,743799,,1478,1
1622094391997,743820,,1408,1
1622094391997,743840,,1397,1
1622094391997,743860,,1290,1
1622094391997,743880,,1180,1
1622094391997,743900,,1134,1
1622094391997,743920,,1105,1
1622094391997,743940,,1248,1
1622094391997,743960,,1435,1
1622094391997,743980,,1565,1
1622094391997,744000,,1645,1
1622094391997,744020,,1669,1
1622094391997,744041,,1649,1
1622094391997,744061,,1616,1
1622094392595,744081,,1441,1
1622094392595,744101,,1440,1
1622094392595,744121,,1487,1
1622094392595,744141,,1593,1
1622094392595,744161,,1803,1
1622094392595,744181,,2158,1
1622094392595,744201,,2704,1
1622094392595,744221,,3391,1
1622094392595,744241,,4016,1
1622094392595,744262,,4011,1
1622094392595,744282,,4011,1
1622094392595,744302,,4010,1
1622094392595,744322,,4010,1
1622094392595,744342,,3720,1
1622094392595,744362,,3233,1
1622094392595,744382,,2810,1
1622094392595,744402,,2442,1
1622094392595,744422,,2039,1
1622094392595,744442,,1664,1
1622094392595,744462,,1369,1
1622094392595,744483,,1181,1
1622094392595,744503,,1165,1
1622094392595,744523,,1266,1
1622094392595,744543,,1489,1
1622094392595,744563,,1626,1
1622094393341,744583,,1653,1
1622094393341,744603,,1807,1
1622094393341,744623,,1904,1
1622094393341,744643,,1891,1
1622094393341,744663,,1831,1
1622094393341,744683,,1741,1
1622094393341,744703,,1645,1
1622094393341,744723,,1530,1
1622094393341,744743,,1428,1
1622094393341,744763,,1407,1
1622094393341,744783,,1246,1
1622094393341,744803,,1135,1
1622094393341,744823,,1104,1
1622094393341,744843,,1085,1
1622094393341,744863,,1243,1
1622094393341,744883,,1431,1
1622094393341,744903,,1589,1
1622094393341,744924,,1686,1
1622094393341,744944,,1728,1
1622094393341,744964,,1715,1
1622094393341,744984,,1574,1
1622094393341,745004,,1453,1
1622094393341,745024,,1389,1
1622094393341,745044,,1344,1
1622094393341,745064,,1430,1
1622094393543,745085,,1725,1
1622094393543,745105,,2129,1
1622094393543,745125,,2685,1
1622094393543,745146,,3366,1
1622094393543,745166,,4015,1
1622094393543,745186,,4010,1
1622094393543,745206,,4011,1
1622094393543,745226,,4010,1
1622094393543,745246,,4005,1
1622094393543,745266,,3349,1
1622094393543,745286,,2951,1
1622094393543,745306,,2602,1
1622094393543,745326,,2188,1
1622094393543,745346,,1791,1
1622094393543,745367,,1461,1
1622094393543,745387,,1248,1
1622094393543,745407,,1180,1
1622094393543,745427,,1258,1
1622094393543,745447,,1392,1
1622094393543,745467,,1648,1
1622094393543,745487,,1712,1
1622094393543,745507,,1731,1
1622094393543,745527,,1737,1
1622094393543,745547,,1727,1
1622094393543,745567,,1664,1
1622094394000,745587,,1728,1
1622094394000,745607,,1744,1
1622094394000,745627,,1711,1
1622094394000,745647,,1633,1
1622094394000,745667,,1529,1
1622094394000,745687,,1425,1
1622094394000,745707,,1342,1
1622094394000,745727,,1297,1
1622094394000,745747,,1291,1
1622094394000,745767,,1142,1
1622094394000,745787,,1200,1
1622094394000,745808,,1325,1
1622094394000,745828,,1453,1
1622094394000,745848,,1555,1
1622094394000,745868,,1633,1
1622094394000,745888,,1631,1
1622094394000,745908,,1520,1
1622094394000,745928,,1437,1
1622094394000,745948,,1395,1
1622094394000,745968,,1371,1
1622094394000,745988,,1572,1
1622094394000,746008,,1983,1
1622094394000,746029,,2559,1
1622094394000,746049,,3307,1
1622094394000,746069,,4005,1
1622094394617,746090,,4007,1
1622094394617,746110,,4002,1
1622094394617,746130,,4011,1
1622094394617,746150,,4005,1
1622094394617,746170,,4016,1
1622094394617,746190,,4005,1
1622094394617,746210,,4006,1
1622094394617,746230,,3483,1
1622094394617,746251,,2687,1
1622094394617,746271,,2137,1
1622094394617,746291,,1616,1
1622094394617,746311,,1265,1
1622094394617,746331,,1082,1
1622094394617,746351,,1079,1
1622094394617,746371,,1229,1
1622094394617,746391,,1355,1
1622094394617,746411,,1487,1
1622094394617,746431,,1601,1
1622094394617,746451,,1697,1
1622094394617,746472,,1721,1
1622094394617,746492,,1688,1
1622094394617,746512,,1735,1
1622094394617,746532,,1729,1
1622094394617,746552,,1675,1
1622094394617,746572,,1451,1
1622094396525,746593,,1237,1
1622094396525,746613,,1232,1
1622094396525,746633,,1261,1
1622094396525,746653,,1309,1
1622094396525,746673,,1232,1
1622094396525,746694,,1146,1
1622094396525,746714,,1281,1
1622094396525,746734,,1409,1
1622094396525,746754,,1495,1
1622094396525,746774,,1552,1
1622094396525,746794,,1571,1
1622094396525,746814,,1575,1
1622094396525,746834,,1553,1
1622094396525,746854,,1584,1
1622094396525,746874,,1470,1
1622094396525,746894,,1306,1
1622094396525,746915,,1347,1
1622094396525,746935,,1446,1
1622094396525,746955,,1602,1
1622094396525,746975,,1713,1
1622094396525,746995,,1902,1
1622094396525,747015,,2504,1
1622094396525,747035,,3375,1
1622094396525,747055,,4010,1
1622094396525,747075,,4012,1
1622094398775,747096,,4004,1
1622094398775,747116,,4003,1
1622094398775,747137,,4016,1
1622094398775,747157,,4016,1
1622094398775,747177,,4010,1
1622094398775,747197,,3995,1
1622094398775,747217,,4000,1
1622094398775,747237,,2970,1
1622094398775,747257,,2382,1
1622094398775,747277,,1734,1
1622094398775,747297,,1182,1
1622094398775,747317,,895,1
1622094398775,747337,,938,1
1622094398775,747358,,1193,1
1622094398775,747378,,1399,1
1622094398775,747398,,1486,1
1622094398775,747418,,1627,1
1622094398775,747438,,1796,1
1622094398775,747458,,1913,1
1622094398775,747478,,1833,1
1622094398775,747498,,1629,1
1622094398775,747518,,1408,1
1622094398775,747538,,1351,1
1622094398775,747558,,1312,1
1622094398775,747579,,1281,1
1622094400975,747599,,1102,1
1622094400975,747619,,1114,1
1622094400975,747639,,1187,1
1622094400975,747659,,1219,1
1622094400975,747679,,1166,1
1622094400975,747699,,1155,1
1622094400975,747719,,1152,1
1622094400975,747739,,1322,1
1622094400975,747759,,1471,1
1622094400975,747779,,1584,1
1622094400975,747800,,1514,1
1622094400975,747820,,1411,1
1622094400975,747840,,1486,1
1622094400975,747860,,1552,1
1622094400975,747880,,1605,1
1622094400975,747900,,1488,1
1622094400975,747920,,1333,1
1622094400975,747940,,1365,1
1622094400975,747960,,1442,1
1622094400975,747981,,1617,1
1622094400975,748001,,1775,1
1622094400975,748022,,2121,1
1622094400975,748042,,2803,1
1622094400975,748062,,3839,1
1622094400975,748082,,4015,1
1622094401422,748102,,4006,1
1622094401422,748122,,4001,1
1622094401422,748142,,4016,1
1622094401422,748162,,4014,1
1622094401422,748182,,4016,1
1622094401422,748202,,3394,1
1622094401422,748222,,2597,1
1622094401422,748243,,2091,1
1622094401422,748263,,1713,1
1622094401422,748283,,1435,1
1622094401422,748303,,1136,1
1622094401422,748323,,919,1
1622094401422,748343,,998,1
1622094401422,748363,,1275,1
1622094401422,748383,,1597,1
1622094401422,748403,,1744,1
1622094401422,748423,,1728,1
1622094401422,748443,,1749,1
1622094401422,748464,,1827,1
1622094401422,748484,,1827,1
1622094401422,748504,,1755,1
1622094401422,748524,,1625,1
1622094401422,748544,,1474,1
1622094401422,748564,,1331,1
1622094401422,748584,,1221,1
1622094401818,748605,,1137,1
1622094401818,748625,,1138,1
1622094401818,748645,,1145,1
1622094401818,748665,,1199,1
1622094401818,748686,,1133,1
1622094401818,748706,,1099,1
1622094401818,748726,,1112,1
1622094401818,748746,,1200,1
1622094401818,748766,,1287,1
1622094401818,748786,,1361,1
1622094401818,748806,,1424,1
1622094401818,748826,,1458,1
1622094401818,748846,,1503,1
1622094401818,748866,,1513,1
1622094401818,748886,,1492,1
1622094401818,748907,,1461,1
1622094401818,748927,,1453,1
1622094401818,748947,,1510,1
1622094401818,748967,,1735,1
1622094401818,748987,,2124,1
1622094401818,749007,,2682,1
1622094401818,749027,,3440,1
1622094401818,749047,,4005,1
1622094401818,749067,,4009,1
1622094401818,749087,,4003,1
1622094402217,749108,,4001,1
1622094402217,749129,,4000,1
1622094402217,749149,,4011,1
1622094402217,749169,,4005,1
1622094402217,749189,,3271,1
1622094402217,749209,,2529,1
1622094402217,749229,,1939,1
1622094402217,749249,,1414,1
1622094402217,749269,,1132,1
1622094402217,749289,,1041,1
1622094402217,749309,,1117,1
1622094402217,749329,,1137,1
1622094402217,749350,,1168,1
1622094402217,749370,,1424,1
1622094402217,749390,,1671,1
1622094402217,749410,,1831,1
1622094402217,749430,,1878,1
1622094402217,749450,,1852,1
1622094402217,749470,,1696,1
1622094402217,749490,,1467,1
1622094402217,749510,,1279,1
1622094402217,749530,,1159,1
1622094402217,749550,,1059,1
1622094402217,749571,,1104,1
1622094402217,749591,,1117,1
1622094402476,749611,,1115,1
1622094402476,749631,,1262,1
1622094402476,749651,,1389,1
1622094402476,749671,,1473,1
1622094402476,749691,,1392,1
1622094402476,749711,,1323,1
1622094402476,749731,,1294,1
1622094402476,749751,,1296,1
1622094402476,749771,,1365,1
1622094402476,749792,,1413,1
1622094402476,749812,,1440,1
1622094402476,749832,,1454,1
1622094402476,749852,,1450,1
1622094402476,749872,,1449,1
1622094402476,749892,,1557,1
1622094402476,749912,,1635,1
1622094402476,749932,,1657,1
1622094402476,749952,,1636,1
1622094402476,749973,,1779,1
1622094402476,749993,,2285,1
1622094402476,750014,,3033,1
1622094402476,750034,,3999,1
1622094402476,750054,,4013,1
1622094402476,750074,,4013,1
1622094402476,750094,,4002,1
1622094402718,750115,,4002,1
1622094402718,750135,,4000,1
1622094402718,750155,,4010,1
1622094402718,750175,,3694,1
1622094402718,750195,,2968,1
1622094402718,750215,,2313,1
1622094402718,750236,,1721,1
1622094402718,750256,,1246,1
1622094402718,750276,,976,1
1622094402718,750296,,913,1
1622094402718,750316,,981,1
1622094402718,750336,,1163,1
1622094402718,750356,,1387,1
1622094402718,750376,,1601,1
1622094402718,750396,,1794,1
1622094402718,750416,,1877,1
1622094402718,750436,,1888,1
1622094402718,750457,,1833,1
1622094402718,750477,,1728,1
1622094402718,750497,,1639,1
1622094402718,750517,,1495,1
1622094402718,750537,,1377,1
1622094402718,750557,,1294,1
1622094402718,750577,,1227,1
1622094402718,750597,,1253,1
1622094404721,753132,,1712,1
1622094404721,753152,,1342,1
1622094404721,753172,,1161,1
1622094404721,753192,,1091,1
1622094404721,753212,,1062,1
1622094404721,753232,,1137,1
1622094404721,753252,,1349,1
1622094404721,753272,,1561,1
1622094404721,753292,,1687,1
1622094404721,753312,,1763,1
1622094404721,753333,,1750,1
1622094404721,753353,,1739,1
1622094404721,753373,,1652,1
1622094404721,753393,,1530,1
1622094404721,753413,,1411,1
1622094404721,753433,,1313,1
1622094404721,753453,,1211,1
1622094404721,753473,,1282,1
1622094404721,753493,,1347,1
1622094404721,753513,,1381,1
1622094404721,753533,,1397,1
1622094404721,753554,,1392,1
1622094404721,753574,,1407,1
1622094404721,753594,,1386,1
1622094404721,753614,,1296,1
1622094405112,753635,,1243,1
1622094405112,753655,,1374,1
1622094405112,753675,,1534,1
1622094405112,753695,,1578,1
1622094405112,753715,,1506,1
1622094405112,753735,,1446,1
1622094405112,753755,,1367,1
1622094405112,753776,,1465,1
1622094405112,753796,,1650,1
1622094405112,753816,,1965,1
1622094405112,753836,,2326,1
1622094405112,753856,,2799,1
1622094405112,753876,,3749,1
1622094405112,753896,,4006,1
1622094405112,753916,,4006,1
1622094405112,753936,,4006,1
1622094405112,753956,,3999,1
1622094405112,753976,,4001,1
1622094405112,753997,,4001,1
1622094405112,754017,,4010,1
1622094405112,754037,,3414,1
1622094405112,754057,,2550,1
1622094405112,754077,,1939,1
1622094405112,754097,,1551,1
1622094405112,754117,,1323,1
1622094405573,754137,,1103,1
1622094405573,754157,,1143,1
1622094405573,754178,,1321,1
1622094405573,754198,,1552,1
1622094405573,754219,,1797,1
1622094405573,754239,,1872,1
1622094405573,754259,,1811,1
1622094405573,754279,,1776,1
1622094405573,754299,,1812,1
1622094405573,754319,,1835,1
1622094405573,754339,,1718,1
1622094405573,754359,,1498,1
1622094405573,754379,,1307,1
1622094405573,754399,,1309,1
1622094405573,754419,,1323,1
1622094405573,754440,,1340,1
1622094405573,754460,,1213,1
1622094405573,754480,,1173,1
1622094405573,754500,,1166,1
1622094405573,754520,,1187,1
1622094405573,754540,,1247,1
1622094405573,754560,,1310,1
1622094405573,754580,,1351,1
1622094405573,754600,,1535,1
1622094405573,754620,,1663,1
1622094406385,754640,,1699,1
1622094406385,754661,,1686,1
1622094406385,754681,,1680,1
1622094406385,754701,,1589,1
1622094406385,754721,,1548,1
1622094406385,754741,,1731,1
1622094406385,754761,,2190,1
1622094406385,754781,,2805,1
1622094406385,754801,,3972,1
1622094406385,754821,,4007,1
1622094406385,754841,,4014,1
1622094406385,754861,,4010,1
1622094406385,754882,,4007,1
1622094406385,754902,,4003,1
1622094406385,754922,,4008,1
1622094406385,754942,,4007,1
1622094406385,754962,,3651,1
1622094406385,754982,,2590,1
1622094406385,755002,,1959,1
1622094406385,755022,,1498,1
1622094406385,755042,,1243,1
1622094406385,755062,,1020,1
1622094406385,755082,,891,1
1622094406385,755103,,1063,1
1622094406385,755123,,1365,1
1622094407726,755647,,1439,1
1622094407726,755667,,1523,1
1622094407726,755687,,1744,1
1622094407726,755707,,2001,1
1622094407726,755727,,2576,1
1622094407726,755747,,3376,1
1622094407726,755768,,4013,1
1622094407726,755788,,4013,1
1622094407726,755808,,4006,1
1622094407726,755828,,4010,1
1622094407726,755848,,4010,1
1622094407726,755868,,4007,1
1622094407726,755888,,4010,1
1622094407726,755908,,4013,1
1622094407726,755928,,4005,1
1622094407726,755948,,3241,1
1622094407726,755968,,2543,1
1622094407726,755989,,1870,1
1622094407726,756009,,1195,1
1622094407726,756029,,931,1
1622094407726,756049,,917,1
1622094407726,756069,,1093,1
1622094407726,756089,,1193,1
1622094407726,756109,,1290,1
1622094407726,756129,,1461,1
1622094409531,757156,,1676,1
1622094409531,757176,,1744,1
1622094409531,757196,,1785,1
1622094409531,757216,,1647,1
1622094409531,757236,,1377,1
1622094409531,757256,,1295,1
1622094409531,757276,,1275,1
1622094409531,757296,,1312,1
1622094409531,757317,,1200,1
1622094409531,757337,,1040,1
1622094409531,757357,,1078,1
1622094409531,757377,,1167,1
1622094409531,757397,,1296,1
1622094409531,757417,,1357,1
1622094409531,757437,,1389,1
1622094409531,757457,,1372,1
1622094409531,757477,,1419,1
1622094409531,757497,,1503,1
1622094409531,757517,,1435,1
1622094409531,757538,,1287,1
1622094409531,757558,,1318,1
1622094409531,757578,,1408,1
1622094409531,757598,,1474,1
1622094409531,757618,,1522,1
1622094409531,757638,,1629,1
1622094409831,757658,,1839,1
1622094409831,757678,,2215,1
1622094409831,757698,,2642,1
1622094409831,757718,,3257,1
1622094409831,757738,,3638,1
1622094409831,757759,,3923,1
1622094409831,757779,,3763,1
1622094409831,757799,,3419,1
1622094409831,757819,,3047,1
1622094409831,757839,,2693,1
1622094409831,757859,,2365,1
1622094409831,757879,,2154,1
1622094409831,757899,,1937,1
1622094409831,757919,,1691,1
1622094409831,757939,,1383,1
1622094409831,757959,,1135,1
1622094409831,757980,,1170,1
1622094409831,758000,,1307,1
1622094409831,758020,,1482,1
1622094409831,758040,,1522,1
1622094409831,758060,,1523,1
1622094409831,758080,,1677,1
1622094409831,758100,,1777,1
1622094409831,758120,,1841,1
1622094409831,758140,,1698,1
1622094410212,758160,,1493,1
1622094410212,758180,,1457,1
1622094410212,758201,,1470,1
1622094410212,758221,,1404,1
1622094410212,758241,,1245,1
1622094410212,758261,,1097,1
1622094410212,758281,,1166,1
1622094410212,758301,,1266,1
1622094410212,758321,,1397,1
1622094410212,758341,,1351,1
1622094410212,758361,,1244,1
1622094410212,758381,,1300,1
1622094410212,758401,,1409,1
1622094410212,758422,,1531,1
1622094410212,758442,,1468,1
1622094410212,758462,,1362,1
1622094410212,758482,,1409,1
1622094410212,758502,,1488,1
1622094410212,758522,,1567,1
1622094410212,758542,,1585,1
1622094410212,758562,,1589,1
1622094410212,758582,,1551,1
1622094410212,758602,,1435,1
1622094410212,758622,,1415,1
1622094410212,758643,,1584,1
1622094410521,758663,,1899,1
1622094410521,758683,,2513,1
1622094410521,758703,,3189,1
1622094410521,758723,,3935,1
1622094410521,758743,,4007,1
1622094410521,758763,,3994,1
1622094410521,758783,,3898,1
1622094410521,758803,,3519,1
1622094410521,758823,,3172,1
1622094410521,758843,,2819,1
1622094410521,758864,,2457,1
1622094410521,758884,,2174,1
1622094410521,758904,,1979,1
1622094410521,758924,,1845,1
1622094410521,758944,,1651,1
1622094410521,758964,,1454,1
1622094410521,758984,,1298,1
1622094410521,759004,,1420,1
1622094410521,759024,,1584,1
1622094410521,759044,,1760,1
1622094410521,759064,,1757,1
1622094410521,759085,,1701,1
1622094410521,759105,,1775,1
1622094410521,759125,,1811,1
1622094410521,759145,,1829,1
1622094410643,759165,,1643,1
1622094410643,759185,,1591,1
1622094410643,759205,,1569,1
1622094410643,759225,,1473,1
1622094410643,759245,,1328,1
1622094410643,759265,,1232,1
1622094410643,759285,,1153,1
1622094410643,759306,,1270,1
1622094410643,759326,,1415,1
1622094410643,759346,,1553,1
1622094410643,759366,,1497,1
1622094410643,759386,,1378,1
1622094410643,759406,,1462,1
1622094410643,759426,,1553,1
1622094410643,759446,,1654,1
1622094410643,759466,,1588,1
1622094410643,759486,,1473,1
1622094410643,759506,,1465,1
1622094410643,759527,,1434,1
1622094410643,759547,,1421,1
1622094410643,759567,,1425,1
1622094410643,759587,,1419,1
1622094410643,759607,,1522,1
1622094410643,759627,,1631,1
1622094410643,759647,,1822,1
1622094410836,759667,,2122,1
1622094410836,759687,,2639,1
1622094410836,759707,,3389,1
1622094410836,759727,,4006,1
1622094410836,759748,,4006,1
1622094410836,759768,,4003,1
1622094410836,759788,,4002,1
1622094410836,759808,,4010,1
1622094410836,759828,,3611,1
1622094410836,759848,,3131,1
1622094410836,759868,,2729,1
1622094410836,759888,,2359,1
1622094410836,759908,,2047,1
1622094410836,759928,,1729,1
1622094410836,759948,,1485,1
1622094410836,759969,,1351,1
1622094410836,759989,,1322,1
1622094410836,760009,,1427,1
1622094410836,760029,,1560,1
1622094410836,760049,,1692,1
1622094410836,760069,,1797,1
1622094410836,760089,,1855,1
1622094410836,760109,,1885,1
1622094410836,760129,,1877,1
1622094410836,760149,,1811,1
1622094410938,760169,,1700,1
1622094410938,760190,,1710,1
1622094410938,760210,,1712,1
1622094410938,760230,,1630,1
1622094410938,760250,,1445,1
1622094410938,760270,,1315,1
1622094410938,760290,,1239,1
1622094410938,760310,,1222,1
1622094410938,760330,,1279,1
1622094410938,760350,,1328,1
1622094410938,760370,,1376,1
1622094410938,760390,,1437,1
1622094410938,760411,,1491,1
1622094410938,760431,,1568,1
1622094410938,760451,,1587,1
1622094410938,760471,,1588,1
1622094410938,760491,,1584,1
1622094410938,760511,,1558,1
1622094410938,760531,,1600,1
1622094410938,760551,,1587,1
1622094410938,760571,,1574,1
1622094410938,760591,,1585,1
1622094410938,760611,,1648,1
1622094410938,760632,,1968,1
1622094410938,760652,,2382,1
1622094410953,760672,,2864,1
1622094410953,760692,,3692,1
1622094410953,760712,,4015,1
1622094410953,760732,,4005,1
1622094410953,760752,,4010,1
1622094410953,760772,,4005,1
1622094410953,760792,,3523,1
1622094410953,760812,,2976,1
1622094410953,760832,,2592,1
1622094410953,760853,,2190,1
1622094410953,760873,,1793,1
1622094410953,760893,,1490,1
1622094410953,760913,,1296,1
1622094410953,760933,,1222,1
1622094410953,760953,,1254,1
1622094410953,760973,,1357,1
1622094410953,760993,,1511,1
1622094410953,761013,,1667,1
1622094410953,761033,,1831,1
1622094410953,761053,,1910,1
1622094410953,761074,,1923,1
1622094410953,761094,,1875,1
1622094410953,761114,,1797,1
1622094410953,761134,,1701,1
1622094410953,761154,,1604,1
1622094410975,761174,,1477,1
1622094410975,761194,,1491,1
1622094410975,761214,,1535,1
1622094410975,761234,,1500,1
1622094410975,761254,,1392,1
1622094410975,761274,,1286,1
1622094410975,761295,,1234,1
1622094410975,761315,,1243,1
1622094410975,761335,,1302,1
1622094410975,761355,,1392,1
1622094410975,761375,,1446,1
1622094410975,761395,,1486,1
1622094410975,761415,,1521,1
1622094410975,761435,,1549,1
1622094410975,761455,,1584,1
1622094410975,761475,,1584,1
1622094410975,761495,,1600,1
1622094410975,761516,,1713,1
1622094410975,761536,,1969,1
1622094410975,761556,,2463,1
1622094410975,761576,,3035,1
1622094410975,761596,,3847,1
1622094410975,761616,,4006,1
1622094410975,761636,,4007,1
1622094410975,761656,,4007,1
1622094410986,761676,,4001,1
1622094410986,761696,,4000,1
1622094410986,761716,,4014,1
1622094410986,761737,,3185,1
1622094410986,761757,,2589,1
1622094410986,761777,,2033,1
1622094410986,761797,,1567,1
1622094410986,761817,,1228,1
1622094410986,761837,,1013,1
1622094410986,761857,,1062,1
1622094410986,761877,,1168,1
1622094410986,761897,,1333,1
1622094410986,761917,,1527,1
1622094410986,761937,,1695,1
1622094410986,761958,,1862,1
1622094410986,761978,,1916,1
1622094410986,761998,,1893,1
1622094410986,762018,,1815,1
1622094410986,762038,,1711,1
1622094410986,762058,,1632,1
1622094410986,762078,,1517,1
1622094410986,762098,,1411,1
1622094410986,762118,,1328,1
1622094410986,762138,,1281,1
1622094410986,762158,,1271,1
1622094411019,762178,,1250,1
1622094411019,762198,,1366,1
1622094411019,762218,,1475,1
1622094411019,762238,,1525,1
1622094411019,762258,,1459,1
1622094411019,762278,,1414,1
1622094411019,762298,,1388,1
1622094411019,762318,,1391,1
1622094411019,762338,,1411,1
1622094411019,762358,,1438,1
1622094411019,762378,,1483,1
1622094411019,762399,,1501,1
1622094411019,762419,,1527,1
1622094411019,762439,,1589,1
1622094411019,762459,,1746,1
1622094411019,762479,,2096,1
1622094411019,762499,,2585,1
1622094411019,762519,,3242,1
1622094411019,762539,,4008,1
1622094411019,762559,,3999,1
1622094411019,762579,,4001,1
1622094411019,762599,,4007,1
1622094411019,762620,,4007,1
1622094411019,762640,,4005,1
1622094411019,762660,,4005,1
1622094411095,762680,,3746,1
1622094411095,762700,,3051,1
1622094411095,762720,,2599,1
1622094411095,762740,,2067,1
1622094411095,762760,,1498,1
1622094411095,762780,,1177,1
1622094411095,762800,,1004,1
1622094411095,762820,,1005,1
1622094411095,762841,,1149,1
1622094411095,762861,,1331,1
1622094411095,762881,,1616,1
1622094411095,762901,,1776,1
1622094411095,762921,,1856,1
1622094411095,762941,,1872,1
1622094411095,762961,,1829,1
1622094411095,762981,,1765,1
1622094411095,763001,,1651,1
1622094411095,763021,,1519,1
1622094411095,763041,,1396,1
1622094411095,763062,,1302,1
1622094411095,763082,,1285,1
1622094411095,763102,,1269,1
1622094411095,763122,,1255,1
1622094411095,763142,,1264,1
1622094411095,763162,,1287,1
1622094411599,763182,,1318,1
1622094411599,763202,,1481,1
1622094411599,763222,,1599,1
1622094411599,763242,,1664,1
1622094411599,763262,,1565,1
1622094411599,763283,,1481,1
1622094411599,763303,,1440,1
1622094411599,763323,,1411,1
1622094411599,763343,,1395,1
1622094411599,763363,,1424,1
1622094411599,763383,,1535,1
1622094411599,763403,,1833,1
1622094411599,763423,,2285,1
1622094411599,763443,,2877,1
1622094411599,763463,,3657,1
1622094411599,763483,,4011,1
1622094411599,763504,,4009,1
1622094411599,763524,,4006,1
1622094411599,763544,,4001,1
1622094411599,763564,,4011,1
1622094411599,763584,,3792,1
1622094411599,763604,,3061,1
1622094411599,763624,,2510,1
1622094411599,763644,,2006,1
1622094411599,763664,,1571,1
1622094412206,763685,,1206,1
1622094412206,763705,,1150,1
1622094412206,763726,,1187,1
1622094412206,763746,,1333,1
1622094412206,763766,,1383,1
1622094412206,763786,,1447,1
1622094412206,763806,,1600,1
1622094412206,763826,,1680,1
1622094412206,763846,,1724,1
1622094412206,763866,,1731,1
1622094412206,763886,,1664,1
1622094412206,763906,,1653,1
1622094412206,763926,,1566,1
1622094412206,763947,,1448,1
1622094412206,763967,,1349,1
1622094412206,763987,,1246,1
1622094412206,764007,,1254,1
1622094412206,764027,,1222,1
1622094412206,764047,,1207,1
1622094412206,764067,,1217,1
1622094412206,764087,,1234,1
1622094412206,764107,,1313,1
1622094412206,764127,,1371,1
1622094412206,764147,,1402,1
1622094412206,764168,,1437,1
1622094412772,764188,,1444,1
1622094412772,764208,,1584,1
1622094412772,764228,,1683,1
1622094412772,764248,,1657,1
1622094412772,764268,,1552,1
1622094412772,764288,,1509,1
1622094412772,764308,,1685,1
1622094412772,764328,,2076,1
1622094412772,764348,,2599,1
1622094412772,764368,,3398,1
1622094412772,764389,,4009,1
1622094412772,764409,,4006,1
1622094412772,764429,,4002,1
1622094412772,764449,,4010,1
1622094412772,764469,,4006,1
1622094412772,764489,,4003,1
1622094412772,764509,,4009,1
1622094412772,764529,,3278,1
1622094412772,764549,,2619,1
1622094412772,764569,,2085,1
1622094412772,764589,,1575,1
1622094412772,764610,,1218,1
1622094412772,764630,,1047,1
1622094412772,764650,,1008,1
1622094412772,764670,,1104,1
1622094413434,764690,,1243,1
1622094413434,764710,,1573,1
1622094413434,764730,,1794,1
1622094413434,764750,,1958,1
1622094413434,764770,,1867,1
1622094413434,764790,,1732,1
1622094413434,764810,,1571,1
1622094413434,764831,,1493,1
1622094413434,764851,,1381,1
1622094413434,764871,,1291,1
1622094413434,764891,,1222,1
1622094413434,764911,,1153,1
1622094413434,764931,,1216,1
1622094413434,764951,,1221,1
1622094413434,764971,,1219,1
1622094413434,764991,,1232,1
1622094413434,765011,,1225,1
1622094413434,765031,,1327,1
1622094413434,765052,,1357,1
1622094413434,765072,,1386,1
1622094413434,765092,,1407,1
1622094413434,765112,,1395,1
1622094413434,765132,,1462,1
1622094413434,765152,,1484,1
1622094413434,765172,,1476,1
1622094413823,765192,,1445,1
1622094413823,765212,,1552,1
1622094413823,765232,,1712,1
1622094413823,765252,,1840,1
1622094413823,765273,,2086,1
1622094413823,765293,,2537,1
1622094413823,765313,,3120,1
1622094413823,765333,,4002,1
1622094413823,765353,,4000,1
1622094413823,765373,,4007,1
1622094413823,765393,,4005,1
1622094413823,765413,,3998,1
1622094413823,765433,,4001,1
1622094413823,765453,,4006,1
1622094413823,765473,,4002,1
1622094413823,765494,,3365,1
1622094413823,765514,,2625,1
1622094413823,765534,,1975,1
1622094413823,765554,,1458,1
1622094413823,765574,,1140,1
1622094413823,765594,,973,1
1622094413823,765614,,1040,1
1622094413823,765634,,1136,1
1622094413823,765654,,1261,1
1622094413823,765674,,1385,1
1622094414190,765694,,1495,1
1622094414190,765715,,1719,1
1622094414190,765735,,1890,1
1622094414190,765755,,1881,1
1622094414190,765775,,1712,1
1622094414190,765795,,1520,1
1622094414190,765815,,1365,1
1622094414190,765835,,1210,1
1622094414190,765855,,1212,1
1622094414190,765875,,1280,1
1622094414190,765895,,1375,1
1622094414190,765915,,1311,1
1622094414190,765936,,1198,1
1622094414190,765956,,1216,1
1622094414190,765976,,1348,1
1622094414190,765996,,1460,1
1622094414190,766016,,1511,1
1622094414190,766036,,1413,1
1622094414190,766056,,1393,1
1622094414190,766076,,1488,1
1622094414190,766096,,1571,1
1622094414190,766116,,1619,1
1622094414190,766136,,1613,1
1622094414190,766156,,1586,1
1622094414190,766176,,1626,1
1622094415063,766196,,1615,1
1622094415063,766216,,1895,1
1622094415063,766236,,2425,1
1622094415063,766256,,3083,1
1622094415063,766276,,3883,1
1622094415063,766296,,4014,1
1622094415063,766316,,4007,1
1622094415063,766336,,4002,1
1622094415063,766356,,4005,1
1622094415063,766377,,4002,1
1622094415063,766397,,3410,1
1622094415063,766417,,2942,1
1622094415063,766437,,2430,1
1622094415063,766457,,1968,1
1622094415063,766477,,1561,1
1622094415063,766497,,1289,1
1622094415063,766517,,1061,1
1622094415063,766537,,939,1
1622094415063,766557,,945,1
1622094415063,766577,,1223,1
1622094415063,766598,,1558,1
1622094415063,766618,,1808,1
1622094415063,766638,,1955,1
1622094415063,766658,,1989,1
1622094415063,766678,,1984,1
1622094415648,766698,,1744,1
1622094415648,766718,,1621,1
1622094415648,766738,,1552,1
1622094415648,766758,,1352,1
1622094415648,766778,,1252,1
1622094415648,766798,,1218,1
1622094415648,766819,,1230,1
1622094415648,766839,,1243,1
1622094415648,766859,,1284,1
1622094415648,766879,,1264,1
1622094415648,766899,,1205,1
1622094415648,766919,,1191,1
1622094415648,766939,,1225,1
1622094415648,766959,,1245,1
1622094415648,766979,,1383,1
1622094415648,766999,,1533,1
1622094415648,767019,,1645,1
1622094415648,767040,,1687,1
1622094415648,767060,,1690,1
1622094415648,767080,,1719,1
1622094415648,767100,,1919,1
1622094415648,767120,,2204,1
1622094415648,767140,,2625,1
1622094415648,767160,,3165,1
1622094415648,767180,,3997,1
1622094415685,767201,,4006,1
1622094415685,767221,,4001,1
1622094415685,767241,,4011,1
1622094415685,767262,,4006,1
1622094415685,767282,,4015,1
1622094415685,767302,,3333,1
1622094415685,767322,,2634,1
1622094415685,767342,,2066,1
1622094415685,767362,,1569,1
1622094415685,767382,,1214,1
1622094415685,767402,,1091,1
1622094415685,767422,,1105,1
1622094415685,767442,,1219,1
1622094415685,767462,,1405,1
1622094415685,767482,,1552,1
1622094415685,767502,,1605,1
1622094415685,767522,,1618,1
1622094415685,767542,,1639,1
1622094415685,767562,,1639,1
1622094415685,767582,,1582,1
1622094415685,767602,,1636,1
1622094415685,767622,,1654,1
1622094415685,767642,,1658,1
1622094415685,767662,,1469,1
1622094415685,767682,,1243,1
1622094416270,767703,,1229,1
1622094416270,767723,,1259,1
1622094416270,767743,,1301,1
1622094416270,767763,,1328,1
1622094416270,767783,,1334,1
1622094416270,767803,,1335,1
1622094416270,767823,,1359,1
1622094416270,767843,,1277,1
1622094416270,767863,,1230,1
1622094416270,767883,,1190,1
1622094416270,767903,,1312,1
1622094416270,767924,,1471,1
1622094416270,767944,,1586,1
1622094416270,767964,,1631,1
1622094416270,767984,,1650,1
1622094416270,768004,,1618,1
1622094416270,768024,,1585,1
1622094416270,768044,,1757,1
1622094416270,768064,,2177,1
1622094416270,768084,,2738,1
1622094416270,768104,,3568,1
1622094416270,768124,,4005,1
1622094416270,768145,,4003,1
1622094416270,768165,,3994,1
1622094416270,768185,,4007,1
1622094416673,768205,,4011,1
1622094416673,768225,,4005,1
1622094416673,768245,,4002,1
1622094416673,768265,,3219,1
1622094416673,768285,,2622,1
1622094416673,768305,,2066,1
1622094416673,768325,,1453,1
1622094416673,768345,,1010,1
1622094416673,768366,,784,1
1622094416673,768386,,752,1
1622094416673,768406,,865,1
1622094416673,768426,,1201,1
1622094416673,768446,,1487,1
1622094416673,768466,,1747,1
1622094416673,768486,,1876,1
1622094416673,768506,,1949,1
1622094416673,768526,,1795,1
1622094416673,768546,,1591,1
1622094416673,768566,,1391,1
1622094416673,768587,,1260,1
1622094416673,768607,,1147,1
1622094416673,768627,,1232,1
1622094416673,768647,,1318,1
1622094416673,768667,,1390,1
1622094416673,768687,,1414,1
1622094417121,768708,,1415,1
1622094417121,768728,,1403,1
1622094417121,768748,,1393,1
1622094417121,768768,,1403,1
1622094417121,768788,,1405,1
1622094417121,768809,,1419,1
1622094417121,768829,,1438,1
1622094417121,768849,,1456,1
1622094417121,768869,,1479,1
1622094417121,768889,,1374,1
1622094417121,768909,,1267,1
1622094417121,768929,,1353,1
1622094417121,768949,,1502,1
1622094417121,768969,,1747,1
1622094417121,768989,,2081,1
1622094417121,769009,,2599,1
1622094417121,769030,,3136,1
1622094417121,769050,,3794,1
1622094417121,769070,,4007,1
1622094417121,769090,,4006,1
1622094417121,769110,,4003,1
1622094417121,769130,,3751,1
1622094417121,769150,,3418,1
1622094417121,769170,,3031,1
1622094417121,769190,,2629,1
1622094417871,769210,,2257,1
1622094417871,769230,,1869,1
1622094417871,769251,,1516,1
1622094417871,769271,,1262,1
1622094417871,769291,,1188,1
1622094417871,769311,,1130,1
1622094417871,769331,,1181,1
1622094417871,769351,,1280,1
1622094417871,769371,,1426,1
1622094417871,769391,,1586,1
1622094417871,769411,,1697,1
1622094417871,769431,,1765,1
1622094417871,769451,,1893,1
1622094417871,769472,,1956,1
1622094417871,769492,,1859,1
1622094417871,769512,,1616,1
1622094417871,769532,,1413,1
1622094417871,769552,,1378,1
1622094417871,769572,,1375,1
1622094417871,769592,,1371,1
1622094417871,769612,,1381,1
1622094417871,769632,,1392,1
1622094417871,769652,,1305,1
1622094417871,769672,,1237,1
1622094417871,769693,,1231,1
1622094418246,769713,,1240,1
1622094418246,769733,,1392,1
1622094418246,769753,,1579,1
1622094418246,769773,,1609,1
1622094418246,769793,,1524,1
1622094418246,769813,,1465,1
1622094418246,769833,,1456,1
1622094418246,769853,,1751,1
1622094418246,769873,,2176,1
1622094418246,769893,,2810,1
1622094418246,769914,,3419,1
1622094418246,769934,,3887,1
1622094418246,769954,,4001,1
1622094418246,769974,,4003,1
1622094418246,769994,,4003,1
1622094418246,770014,,4005,1
1622094418246,770034,,3870,1
1622094418246,770054,,3199,1
1622094418246,770074,,2643,1
1622094418246,770094,,2214,1
1622094418246,770114,,1831,1
1622094418246,770135,,1360,1
1622094418246,770155,,1104,1
1622094418246,770175,,972,1
1622094418246,770195,,993,1
1622094418647,770215,,1118,1
1622094418647,770235,,1427,1
1622094418647,770255,,1753,1
1622094418647,770275,,1899,1
1622094418647,770295,,1877,1
1622094418647,770315,,1808,1
1622094418647,770335,,1693,1
1622094418647,770356,,1616,1
1622094418647,770376,,1635,1
1622094418647,770396,,1598,1
1622094418647,770416,,1583,1
1622094418647,770436,,1394,1
1622094418647,770456,,1226,1
1622094418647,770476,,1238,1
1622094418647,770496,,1280,1
1622094418647,770516,,1328,1
1622094418647,770536,,1359,1
1622094418647,770556,,1386,1
1622094418647,770577,,1404,1
1622094418647,770597,,1407,1
1622094418647,770617,,1414,1
1622094418647,770637,,1426,1
1622094418647,770657,,1447,1
1622094418647,770677,,1456,1
1622094418647,770697,,1485,1
1622094419127,770717,,1354,1
1622094419127,770737,,1419,1
1622094419127,770757,,1647,1
1622094419127,770777,,1945,1
1622094419127,770798,,2355,1
1622094419127,770818,,2962,1
1622094419127,770838,,3859,1
1622094419127,770858,,4007,1
1622094419127,770878,,4006,1
1622094419127,770898,,4005,1
1622094419127,770918,,4009,1
1622094419127,770938,,4011,1
1622094419127,770958,,4011,1
1622094419127,770978,,4004,1
1622094419127,770998,,4005,1
1622094419127,771019,,3053,1
1622094419127,771039,,2423,1
1622094419127,771059,,1856,1
1622094419127,771079,,1439,1
1622094419127,771099,,1200,1
1622094419127,771119,,1126,1
1622094419127,771139,,1197,1
1622094419127,771159,,1341,1
1622094419127,771179,,1500,1
1622094419127,771199,,1645,1
1622094419755,771220,,1733,1
1622094419755,771241,,1758,1
1622094419755,771261,,1712,1
1622094419755,771281,,1664,1
1622094419755,771301,,1495,1
1622094419755,771321,,1287,1
1622094419755,771341,,1134,1
1622094419755,771361,,1015,1
1622094419755,771381,,1044,1
1622094419755,771401,,1178,1
1622094419755,771421,,1337,1
1622094419755,771441,,1344,1
1622094419755,771462,,1247,1
1622094419755,771482,,1264,1
1622094419755,771502,,1382,1
1622094419755,771522,,1469,1
1622094419755,771542,,1526,1
1622094419755,771562,,1549,1
1622094419755,771582,,1585,1
1622094419755,771602,,1488,1
1622094419755,771622,,1365,1
1622094419755,771642,,1290,1
1622094419755,771662,,1267,1
1622094419755,771683,,1296,1
1622094419755,771703,,1560,1
1622094421152,771724,,1939,1
1622094421152,771744,,2478,1
1622094421152,771764,,3033,1
1622094421152,771784,,4014,1
1622094421152,771804,,4013,1
1622094421152,771824,,4010,1
1622094421152,771844,,4005,1
1622094421152,771864,,4007,1
1622094421152,771884,,4011,1
1622094421152,771905,,4002,1
1622094421152,771925,,4009,1
1622094421152,771945,,3225,1
1622094421152,771965,,2644,1
1622094421152,771985,,2167,1
1622094421152,772005,,1625,1
1622094421152,772025,,1186,1
1622094421152,772045,,974,1
1622094421152,772065,,962,1
1622094421152,772086,,1062,1
1622094421152,772106,,1369,1
1622094421152,772127,,1686,1
1622094421152,772147,,1943,1
1622094421152,772167,,1921,1
1622094421152,772187,,1770,1
1622094421152,772207,,1726,1
1622094425081,772228,,1695,1
1622094425081,772248,,1630,1
1622094425081,772268,,1543,1
1622094425081,772288,,1456,1
1622094425081,772308,,1328,1
1622094425081,772328,,1141,1
1622094425081,772349,,1042,1
1622094425081,772369,,1014,1
1622094425081,772389,,1005,1
1622094425081,772409,,1165,1
1622094425081,772429,,1335,1
1622094425081,772449,,1456,1
1622094425081,772469,,1535,1
1622094425081,772489,,1562,1
1622094425081,772509,,1525,1
1622094425081,772529,,1483,1
1622094425081,772549,,1443,1
1622094425081,772570,,1422,1
1622094425081,772590,,1435,1
1622094425081,772610,,1549,1
1622094425081,772630,,1836,1
1622094425081,772650,,2320,1
1622094425081,772670,,2875,1
1622094425081,772690,,3482,1
1622094425081,772710,,4007,1
1622094427095,773734,,4004,1
1622094427095,773754,,4001,1
1622094427095,773774,,4014,1
1622094427095,773794,,4009,1
1622094427095,773814,,4005,1
1622094427095,773834,,3219,1
1622094427095,773854,,2739,1
1622094427095,773874,,2300,1
1622094427095,773895,,1808,1
1622094427095,773915,,1370,1
1622094427095,773935,,1072,1
1622094427095,773955,,1135,1
1622094427095,773975,,1269,1
1622094427095,773995,,1443,1
1622094427095,774015,,1444,1
1622094427095,774035,,1425,1
1622094427095,774055,,1575,1
1622094427095,774075,,1724,1
1622094427095,774095,,1838,1
1622094427095,774116,,1744,1
1622094427095,774136,,1571,1
1622094427095,774156,,1563,1
1622094427095,774176,,1505,1
1622094427095,774196,,1446,1
1622094427095,774216,,1264,1
1622094429068,776748,,1838,1
1622094429068,776769,,1763,1
1622094429068,776789,,1675,1
1622094429068,776809,,1550,1
1622094429068,776829,,1333,1
1622094429068,776849,,1173,1
1622094429068,776869,,1117,1
1622094429068,776889,,1088,1
1622094429068,776909,,1191,1
1622094429068,776929,,1257,1
1622094429068,776949,,1315,1
1622094429068,776969,,1375,1
1622094429068,776990,,1403,1
1622094429068,777010,,1491,1
1622094429068,777030,,1521,1
1622094429068,777050,,1531,1
1622094429068,777070,,1552,1
1622094429068,777090,,1615,1
1622094429068,777110,,1833,1
1622094429068,777130,,2195,1
1622094429068,777150,,2686,1
1622094429068,777170,,3278,1
1622094429068,777190,,4003,1
1622094429068,777210,,4006,1
1622094429068,777230,,4006,1
1622094429202,777250,,4001,1
1622094429202,777270,,4007,1
1622094429202,777290,,3615,1
1622094429202,777310,,3039,1
1622094429202,777330,,2571,1
1622094429202,777350,,2006,1
1622094429202,777370,,1472,1
1622094429202,777390,,1107,1
1622094429202,777410,,896,1
1622094429202,777431,,899,1
1622094429202,777451,,1014,1
1622094429202,777471,,1214,1
1622094429202,777491,,1427,1
1622094429202,777511,,1618,1
1622094429202,777531,,1810,1
1622094429202,777551,,1878,1
1622094429202,777571,,1870,1
1622094429202,777591,,1805,1
1622094429202,777611,,1686,1
1622094429202,777631,,1639,1
1622094429202,777652,,1517,1
1622094429202,777672,,1395,1
1622094429202,777692,,1315,1
1622094429202,777712,,1231,1
1622094429202,777732,,1254,1
1622094430181,778255,,1149,1
1622094430181,778275,,1364,1
1622094430181,778295,,1634,1
1622094430181,778316,,1771,1
1622094430181,778336,,1733,1
1622094430181,778356,,1845,1
1622094430181,778376,,1899,1
1622094430181,778396,,1871,1
1622094430181,778416,,1789,1
1622094430181,778436,,1698,1
1622094430181,778456,,1558,1
1622094430181,778476,,1328,1
1622094430181,778496,,1173,1
1622094430181,778516,,1085,1
1622094430181,778537,,1065,1
1622094430181,778557,,1119,1
1622094430181,778577,,1162,1
1622094430181,778597,,1210,1
1622094430181,778617,,1264,1
1622094430181,778637,,1305,1
1622094430181,778657,,1393,1
1622094430181,778677,,1417,1
1622094430181,778697,,1426,1
1622094430181,778717,,1427,1
1622094430181,778737,,1426,1
1622094430699,778757,,1686,1
1622094430699,778777,,2113,1
1622094430699,778797,,2592,1
1622094430699,778817,,3319,1
1622094430699,778837,,3984,1
1622094430699,778857,,4010,1
1622094430699,778877,,4007,1
1622094430699,778897,,4010,1
1622094430699,778917,,4010,1
1622094430699,778937,,3997,1
1622094430699,778957,,4011,1
1622094430699,778978,,3879,1
1622094430699,778998,,3166,1
1622094430699,779018,,2502,1
1622094430699,779038,,1847,1
1622094430699,779058,,1360,1
1622094430699,779078,,1157,1
1622094430699,779098,,1085,1
1622094430699,779118,,1141,1
1622094430699,779138,,1142,1
1622094430699,779158,,1218,1
1622094430699,779178,,1471,1
1622094430699,779199,,1712,1
1622094430699,779219,,1851,1
1622094430699,779239,,1918,1
1622094430973,779259,,1744,1
1622094430973,779279,,1681,1
1622094430973,779299,,1616,1
1622094430973,779319,,1535,1
1622094430973,779339,,1339,1
1622094430973,779359,,1139,1
1622094430973,779379,,1155,1
1622094430973,779399,,1204,1
1622094430973,779420,,1296,1
1622094430973,779440,,1223,1
1622094430973,779460,,1136,1
1622094430973,779480,,1232,1
1622094430973,779500,,1360,1
1622094430973,779520,,1486,1
1622094430973,779540,,1430,1
1622094430973,779560,,1312,1
1622094430973,779580,,1361,1
1622094430973,779600,,1455,1
1622094430973,779620,,1613,1
1622094430973,779641,,1707,1
1622094430973,779661,,1903,1
1622094430973,779681,,2462,1
1622094430973,779701,,3189,1
1622094430973,779721,,4007,1
1622094430973,779741,,4006,1
1622094431563,779762,,4010,1
1622094431563,779782,,4004,1
1622094431563,779802,,4012,1
1622094431563,779822,,4005,1
1622094431563,779842,,4014,1
1622094431563,779863,,3456,1
1622094431563,779883,,2793,1
1622094431563,779903,,2311,1
1622094431563,779923,,1917,1
1622094431563,779943,,1437,1
1622094431563,779963,,1033,1
1622094431563,779983,,913,1
1622094431563,780003,,1040,1
1622094431563,780023,,1271,1
1622094431563,780043,,1437,1
1622094431563,780063,,1483,1
1622094431563,780083,,1586,1
1622094431563,780103,,1746,1
1622094431563,780123,,1821,1
1622094431563,780143,,1839,1
1622094431563,780163,,1632,1
1622094431563,780183,,1460,1
1622094431563,780203,,1294,1
1622094431563,780223,,1168,1
1622094431563,780243,,1109,1
1622094431985,780264,,1072,1
1622094431985,780284,,1221,1
1622094431985,780305,,1402,1
1622094431985,780325,,1456,1
1622094431985,780345,,1417,1
1622094431985,780365,,1407,1
1622094431985,780385,,1409,1
1622094431985,780405,,1586,1
1622094431985,780425,,1744,1
1622094431985,780445,,1850,1
1622094431985,780465,,1759,1
1622094431985,780485,,1610,1
1622094431985,780505,,1622,1
1622094431985,780526,,1650,1
1622094431985,780546,,1763,1
1622094431985,780566,,1858,1
1622094431985,780586,,2083,1
1622094431985,780606,,2670,1
1622094431985,780626,,3407,1
1622094431985,780646,,4013,1
1622094431985,780666,,4012,1
1622094431985,780686,,4007,1
1622094431985,780706,,4002,1
1622094431985,780726,,4001,1
1622094431985,780747,,3611,1
1622094432814,780767,,2850,1
1622094432814,780787,,2400,1
1622094432814,780807,,1979,1
1622094432814,780827,,1650,1
1622094432814,780847,,1262,1
1622094432814,780867,,985,1
1622094432814,780887,,868,1
1622094432814,780907,,987,1
1622094432814,780927,,1154,1
1622094432814,780947,,1367,1
1622094432814,780968,,1559,1
1622094432814,780988,,1648,1
1622094432814,781008,,1778,1
1622094432814,781028,,1883,1
1622094432814,781048,,1931,1
1622094432814,781068,,1758,1
1622094432814,781088,,1484,1
1622094432814,781108,,1348,1
1622094432814,781128,,1337,1
1622094432814,781148,,1386,1
1622094432814,781168,,1322,1
1622094432814,781189,,1165,1
1622094432814,781209,,1130,1
1622094432814,781229,,1233,1
1622094432814,781249,,1364,1
1622094433476,781269,,1389,1
1622094433476,781289,,1454,1
1622094433476,781309,,1531,1
1622094433476,781329,,1625,1
1622094433476,781349,,1648,1
1622094433476,781369,,1573,1
1622094433476,781389,,1502,1
1622094433476,781410,,1451,1
1622094433476,781430,,1599,1
1622094433476,781450,,1777,1
1622094433476,781470,,2102,1
1622094433476,781490,,2439,1
1622094433476,781510,,2921,1
1622094433476,781530,,3918,1
1622094433476,781550,,4003,1
1622094433476,781570,,4011,1
1622094433476,781590,,4011,1
1622094433476,781610,,3999,1
1622094433476,781631,,4002,1
1622094433476,781651,,4005,1
1622094433476,781671,,4011,1
1622094433476,781691,,3427,1
1622094433476,781711,,2546,1
1622094433476,781731,,2007,1
1622094433476,781751,,1606,1
1622094434040,781772,,1276,1
1622094434040,781792,,1131,1
1622094434040,781812,,1096,1
1622094434040,781832,,1188,1
1622094434040,781853,,1211,1
1622094434040,781873,,1286,1
1622094434040,781893,,1388,1
1622094434040,781913,,1439,1
1622094434040,781933,,1587,1
1622094434040,781953,,1712,1
1622094434040,781973,,1787,1
1622094434040,781993,,1694,1
1622094434040,782013,,1466,1
1622094434040,782033,,1345,1
1622094434040,782053,,1333,1
1622094434040,782074,,1381,1
1622094434040,782094,,1298,1
1622094434040,782114,,1172,1
1622094434040,782134,,1216,1
1622094434040,782154,,1360,1
1622094434040,782174,,1488,1
1622094434040,782194,,1616,1
1622094434040,782214,,1530,1
1622094434040,782234,,1495,1
1622094434040,782254,,1559,1
1622094434577,782274,,1600,1
1622094434577,782295,,1602,1
1622094434577,782315,,1595,1
1622094434577,782335,,1503,1
1622094434577,782355,,1522,1
1622094434577,782375,,1733,1
1622094434577,782395,,2064,1
1622094434577,782415,,2484,1
1622094434577,782435,,3071,1
1622094434577,782455,,4006,1
1622094434577,782475,,4010,1
1622094434577,782495,,4011,1
1622094434577,782516,,4013,1
1622094434577,782536,,4010,1
1622094434577,782556,,4007,1
1622094434577,782576,,4005,1
1622094434577,782596,,3126,1
1622094434577,782616,,2423,1
1622094434577,782636,,1817,1
1622094434577,782656,,1409,1
1622094434577,782676,,1173,1
1622094434577,782696,,1066,1
1622094434577,782716,,961,1
1622094434577,782737,,964,1
1622094434577,782757,,1202,1
1622094435482,782778,,1506,1
1622094435482,782798,,1751,1
1622094435482,782818,,1915,1
1622094435482,782838,,1978,1
1622094435482,782858,,1941,1
1622094435482,782878,,1841,1
1622094435482,782898,,1699,1
1622094435482,782918,,1598,1
1622094435482,782938,,1339,1
1622094435482,782959,,1166,1
1622094435482,782979,,1023,1
1622094435482,782999,,970,1
1622094435482,783019,,977,1
1622094435482,783039,,1023,1
1622094435482,783059,,1153,1
1622094435482,783079,,1249,1
1622094435482,783099,,1330,1
1622094435482,783119,,1392,1
1622094435482,783139,,1379,1
1622094435482,783159,,1472,1
1622094435482,783180,,1558,1
1622094435482,783200,,1623,1
1622094435482,783220,,1489,1
1622094435482,783240,,1307,1
1622094435482,783260,,1326,1
1622094435619,784288,,4010,1
1622094435619,784308,,4001,1
1622094435619,784328,,4012,1
1622094435619,784348,,3491,1
1622094435619,784368,,2795,1
1622094435619,784388,,2309,1
1622094435619,784408,,1927,1
1622094435619,784428,,1621,1
1622094435619,784448,,1270,1
1622094435619,784468,,933,1
1622094435619,784488,,865,1
1622094435619,784509,,887,1
1622094435619,784529,,1043,1
1622094435619,784549,,1263,1
1622094435619,784569,,1447,1
1622094435619,784589,,1712,1
1622094435619,784609,,1847,1
1622094435619,784629,,1893,1
1622094435619,784649,,1878,1
1622094435619,784669,,1806,1
1622094435619,784689,,1713,1
1622094435619,784709,,1721,1
1622094435619,784730,,1713,1
1622094435619,784750,,1616,1
1622094435619,784770,,1403,1
1622094435638,784791,,1239,1
1622094435638,784811,,1259,1
1622094435638,784831,,1318,1
1622094435638,784851,,1330,1
1622094435638,784871,,1264,1
1622094435638,784891,,1199,1
1622094435638,784911,,1328,1
1622094435638,784931,,1439,1
1622094435638,784952,,1530,1
1622094435638,784972,,1484,1
1622094435638,784992,,1443,1
1622094435638,785012,,1680,1
1622094435638,785032,,2064,1
1622094435638,785052,,2574,1
1622094435638,785072,,3079,1
1622094435638,785092,,3647,1
1622094435638,785112,,4006,1
1622094435638,785132,,4001,1
1622094435638,785152,,4013,1
1622094435638,785173,,4011,1
1622094435638,785193,,3219,1
1622094435638,785213,,2609,1
1622094435638,785233,,2064,1
1622094435638,785253,,1580,1
1622094435638,785273,,1203,1
1622094435654,785293,,949,1
1622094435654,785313,,971,1
1622094435654,785333,,1142,1
1622094435654,785353,,1287,1
1622094435654,785373,,1399,1
1622094435654,785394,,1480,1
1622094435654,785414,,1702,1
1622094435654,785434,,1905,1
1622094435654,785454,,2064,1
1622094435654,785474,,1983,1
1622094435654,785494,,1797,1
1622094435654,785514,,1712,1
1622094435654,785534,,1680,1
1622094435654,785554,,1684,1
1622094435654,785574,,1533,1
1622094435654,785594,,1345,1
1622094435654,785614,,1256,1
1622094435654,785634,,1305,1
1622094435654,785654,,1404,1
1622094435654,785674,,1386,1
1622094435654,785694,,1281,1
1622094435654,785714,,1265,1
1622094435654,785734,,1370,1
1622094435654,785754,,1488,1
1622094435654,785774,,1501,1
1622094435685,785795,,1415,1
1622094435685,785815,,1569,1
1622094435685,785836,,1949,1
1622094435685,785856,,2385,1
1622094435685,785876,,2886,1
1622094435685,785896,,3614,1
1622094435685,785916,,4001,1
1622094435685,785936,,4016,1
1622094435685,785956,,3996,1
1622094435685,785976,,4011,1
1622094435685,785996,,4009,1
1622094435685,786017,,3444,1
1622094435685,786037,,2821,1
1622094435685,786058,,2342,1
1622094435685,786078,,1903,1
1622094435685,786098,,1413,1
1622094435685,786118,,1059,1
1622094435685,786138,,887,1
1622094435685,786158,,883,1
1622094435685,786178,,1038,1
1622094435685,786198,,1280,1
1622094435685,786218,,1502,1
1622094435685,786238,,1886,1
1622094435685,786258,,2154,1
1622094435685,786279,,2314,1
1622094435721,786801,,4006,1
1622094435721,786821,,3996,1
1622094435721,786841,,4011,1
1622094435721,786861,,4007,1
1622094435721,786881,,4010,1
1622094435721,786901,,3999,1
1622094435721,786921,,4013,1
1622094435721,786942,,2982,1
1622094435721,786962,,2096,1
1622094435721,786982,,1451,1
1622094435721,787002,,1056,1
1622094435721,787022,,933,1
1622094435721,787042,,989,1
1622094435721,787062,,1322,1
1622094435721,787082,,1621,1
1622094435721,787102,,1887,1
1622094435721,787122,,1903,1
1622094435721,787142,,1807,1
1622094435721,787163,,1829,1
1622094435721,787183,,1795,1
1622094435721,787203,,1710,1
1622094435721,787223,,1611,1
1622094435721,787243,,1488,1
1622094435721,787263,,1408,1
1622094435721,787283,,1198,1
1622094435740,787303,,1009,1
1622094435740,787323,,1061,1
1622094435740,787343,,1187,1
1622094435740,787363,,1232,1
1622094435740,787384,,1202,1
1622094435740,787404,,1199,1
1622094435740,787424,,1231,1
1622094435740,787444,,1277,1
1622094435740,787464,,1389,1
1622094435740,787484,,1435,1
1622094435740,787504,,1476,1
1622094435740,787524,,1511,1
1622094435740,787544,,1526,1
1622094435740,787564,,1794,1
1622094435740,787584,,2301,1
1622094435740,787605,,3010,1
1622094435740,787625,,4011,1
1622094435740,787645,,4011,1
1622094435740,787665,,4015,1
1622094435740,787685,,4007,1
1622094435740,787705,,4005,1
1622094435740,787725,,4015,1
1622094435740,787745,,4009,1
1622094435740,787765,,4013,1
1622094435740,787785,,4012,1
1622094436217,787805,,3751,1
1622094436217,787826,,2702,1
1622094436217,787846,,1965,1
1622094436217,787866,,1438,1
1622094436217,787886,,1088,1
1622094436217,787906,,958,1
1622094436217,787926,,1044,1
1622094436217,787946,,1102,1
1622094436217,787966,,1253,1
1622094436217,787986,,1552,1
1622094436217,788006,,1802,1
1622094436217,788026,,1911,1
1622094436217,788047,,1907,1
1622094436217,788067,,1818,1
1622094436217,788087,,1662,1
1622094436217,788107,,1508,1
1622094436217,788127,,1398,1
1622094436217,788147,,1180,1
1622094436217,788167,,987,1
1622094436217,788187,,1009,1
1622094436217,788207,,1089,1
1622094436217,788227,,1179,1
1622094436217,788247,,1261,1
1622094436217,788268,,1324,1
1622094436217,788288,,1367,1
1622094436722,788309,,1405,1
1622094436722,788329,,1427,1
1622094436722,788349,,1483,1
1622094436722,788369,,1421,1
1622094436722,788389,,1314,1
1622094436722,788409,,1228,1
1622094436722,788429,,1218,1
1622094436722,788449,,1329,1
1622094436722,788469,,1610,1
1622094436722,788490,,2295,1
1622094436722,788510,,3286,1
1622094436722,788530,,4011,1
1622094436722,788550,,4003,1
1622094436722,788570,,4007,1
1622094436722,788590,,4005,1
1622094436722,788610,,4005,1
1622094436722,788630,,4009,1
1622094436722,788650,,4013,1
1622094436722,788670,,4007,1
1622094436722,788690,,3718,1
1622094436722,788711,,2665,1
1622094436722,788731,,1875,1
1622094436722,788751,,1298,1
1622094436722,788771,,885,1
1622094436722,788791,,678,1
1622094437223,788812,,709,1
1622094437223,788832,,880,1
1622094437223,788852,,1146,1
1622094437223,788872,,1383,1
1622094437223,788892,,1566,1
1622094437223,788912,,1691,1
1622094437223,788933,,1699,1
1622094437223,788953,,1521,1
1622094437223,788973,,1313,1
1622094437223,788993,,1232,1
1622094437223,789013,,1127,1
1622094437223,789033,,1054,1
1622094437223,789053,,1008,1
1622094437223,789073,,985,1
1622094437223,789093,,991,1
1622094437223,789113,,1147,1
1622094437223,789133,,1264,1
1622094437223,789154,,1326,1
1622094437223,789174,,1341,1
1622094437223,789194,,1349,1
1622094437223,789214,,1332,1
1622094437223,789234,,1328,1
1622094437223,789254,,1335,1
1622094437223,789274,,1347,1
1622094437223,789294,,1359,1
1622094437729,789315,,1369,1
1622094437729,789335,,1392,1
1622094437729,789355,,1457,1
1622094437729,789376,,1665,1
1622094437729,789396,,2046,1
1622094437729,789416,,2615,1
1622094437729,789436,,3440,1
1622094437729,789456,,4014,1
1622094437729,789476,,4009,1
1622094437729,789496,,4007,1
1622094437729,789516,,4007,1
1622094437729,789536,,4000,1
1622094437729,789556,,3771,1
1622094437729,789576,,2991,1
1622094437729,789597,,2387,1
1622094437729,789617,,1876,1
1622094437729,789637,,1389,1
1622094437729,789657,,1115,1
1622094437729,789677,,865,1
1622094437729,789697,,688,1
1622094437729,789717,,841,1
1622094437729,789737,,1136,1
1622094437729,789757,,1437,1
1622094437729,789778,,1712,1
1622094437729,789798,,1871,1
1622094438228,789818,,1929,1
1622094438228,789838,,1919,1
1622094438228,789858,,1891,1
1622094438228,789878,,1744,1
1622094438228,789898,,1487,1
1622094438228,789918,,1361,1
1622094438228,789938,,1356,1
1622094438228,789958,,1362,1
1622094438228,789978,,1351,1
1622094438228,789998,,1330,1
1622094438228,790018,,1311,1
1622094438228,790038,,1295,1
1622094438228,790058,,1287,1
1622094438228,790078,,1296,1
1622094438228,790098,,1312,1
1622094438228,790118,,1351,1
1622094438228,790138,,1307,1
1622094438228,790158,,1216,1
1622094438228,790178,,1179,1
1622094438228,790198,,1205,1
1622094438228,790218,,1323,1
1622094438228,790238,,1774,1
1622094438228,790259,,2352,1
1622094438228,790279,,3051,1
1622094438228,790299,,4006,1
1622094438730,790320,,4005,1
1622094438730,790340,,4005,1
1622094438730,790360,,4014,1
1622094438730,790380,,4005,1
1622094438730,790400,,4002,1
1622094438730,790420,,4001,1
1622094438730,790440,,3110,1
1622094438730,790460,,2423,1
1622094438730,790480,,1814,1
1622094438730,790500,,1331,1
1622094438730,790520,,990,1
1622094438730,790540,,833,1
1622094438730,790560,,831,1
1622094438730,790580,,963,1
1622094438730,790600,,1194,1
1622094438730,790620,,1410,1
1622094438730,790640,,1637,1
1622094438730,790660,,1671,1
1622094438730,790680,,1671,1
1622094438730,790701,,1648,1
1622094438730,790721,,1545,1
1622094438730,790741,,1579,1
1622094438730,790761,,1607,1
1622094438730,790781,,1584,1
1622094438730,790801,,1510,1
1622094439292,790822,,1427,1
1622094439292,790842,,1338,1
1622094439292,790862,,1287,1
1622094439292,790882,,1235,1
1622094439292,790902,,1104,1
1622094439292,790923,,977,1
1622094439292,790943,,1088,1
1622094439292,790963,,1250,1
1622094439292,790983,,1392,1
1622094439292,791003,,1489,1
1622094439292,791023,,1535,1
1622094439292,791043,,1581,1
1622094439292,791063,,1465,1
1622094439292,791083,,1377,1
1622094439292,791103,,1371,1
1622094439292,791123,,1439,1
1622094439292,791143,,1787,1
1622094439292,791163,,2433,1
1622094439292,791183,,3363,1
1622094439292,791203,,4005,1
1622094439292,791223,,4006,1
1622094439292,791243,,4013,1
1622094439292,791263,,4011,1
1622094439292,791283,,4010,1
1622094439292,791303,,4014,1
1622094439741,791324,,4003,1
1622094439741,791344,,4009,1
1622094439741,791364,,3807,1
1622094439741,791384,,2704,1
1622094439741,791404,,1985,1
1622094439741,791424,,1451,1
1622094439741,791444,,978,1
1622094439741,791464,,713,1
1622094439741,791484,,656,1
1622094439741,791504,,790,1
1622094439741,791524,,1056,1
1622094439741,791545,,1305,1
1622094439741,791565,,1670,1
1622094439741,791586,,1930,1
1622094439741,791606,,2025,1
1622094439741,791626,,1979,1
1622094439741,791646,,1857,1
1622094439741,791666,,1695,1
1622094439741,791686,,1510,1
1622094439741,791706,,1361,1
1622094439741,791726,,1255,1
1622094439741,791746,,1175,1
1622094439741,791767,,1139,1
1622094439741,791787,,1136,1
1622094439741,791808,,1163,1
1622094440241,791829,,1218,1
1622094440241,791849,,1283,1
1622094440241,791869,,1330,1
1622094440241,791889,,1392,1
1622094440241,791909,,1449,1
1622094440241,791929,,1519,1
1622094440241,791949,,1509,1
1622094440241,791969,,1443,1
1622094440241,791989,,1375,1
1622094440241,792009,,1351,1
1622094440241,792030,,1412,1
1622094440241,792050,,1573,1
1622094440241,792070,,2019,1
1622094440241,792090,,2737,1
1622094440241,792110,,3685,1
1622094440241,792130,,4004,1
1622094440241,792150,,4015,1
1622094440241,792170,,4007,1
1622094440241,792190,,4014,1
1622094440241,792210,,4012,1
1622094440241,792230,,4005,1
1622094440241,792251,,3049,1
1622094440241,792271,,2512,1
1622094440241,792291,,2067,1
1622094440241,792311,,1648,1
1622094441035,792332,,1309,1
1622094441035,792352,,1079,1
1622094441035,792372,,974,1
1622094441035,792392,,1017,1
1622094441035,792412,,1163,1
1622094441035,792432,,1385,1
1622094441035,792452,,1456,1
1622094441035,792473,,1569,1
1622094441035,792493,,1622,1
1622094441035,792513,,1633,1
1622094441035,792533,,1616,1
1622094441035,792553,,1562,1
1622094441035,792573,,1488,1
1622094441035,792593,,1535,1
1622094441035,792613,,1535,1
1622094441035,792633,,1493,1
1622094441035,792653,,1427,1
1622094441035,792673,,1351,1
1622094441035,792694,,1298,1
1622094441035,792714,,1267,1
1622094441035,792734,,1302,1
1622094441035,792754,,1200,1
1622094441035,792774,,1155,1
1622094441035,792794,,1179,1
1622094441035,792814,,1230,1
1622094441440,792834,,1275,1
1622094441440,792854,,1457,1
1622094441440,792874,,1599,1
1622094441440,792894,,1706,1
1622094441440,792915,,1735,1
1622094441440,792935,,1760,1
1622094441440,792955,,1904,1
1622094441440,792975,,2085,1
1622094441440,792995,,2451,1
1622094441440,793015,,2946,1
1622094441440,793035,,3597,1
1622094441440,793055,,4007,1
1622094441440,793075,,4002,1
1622094441440,793095,,4001,1
1622094441440,793115,,3625,1
1622094441440,793136,,3070,1
1622094441440,793156,,2591,1
1622094441440,793176,,2139,1
1622094441440,793196,,1680,1
1622094441440,793216,,1328,1
1622094441440,793236,,1139,1
1622094441440,793256,,1021,1
1622094441440,793276,,908,1
1622094441440,793296,,1040,1
1622094441440,793316,,1214,1
1622094441751,793336,,1424,1
1622094441751,793357,,1758,1
1622094441751,793377,,1999,1
1622094441751,793397,,2137,1
1622094441751,793417,,2122,1
1622094441751,793437,,2067,1
1622094441751,793457,,1840,1
1622094441751,793477,,1556,1
1622094441751,793497,,1398,1
1622094441751,793517,,1392,1
1622094441751,793537,,1400,1
1622094441751,793557,,1405,1
1622094441751,793578,,1425,1
1622094441751,793598,,1346,1
1622094441751,793618,,1273,1
1622094441751,793638,,1239,1
1622094441751,793658,,1253,1
1622094441751,793678,,1295,1
1622094441751,793698,,1335,1
1622094441751,793718,,1520,1
1622094441751,793738,,1696,1
1622094441751,793758,,1919,1
1622094441751,793778,,2237,1
1622094441751,793799,,2727,1
1622094441751,793819,,3383,1
1622094442253,793840,,4000,1
1622094442253,793860,,4011,1
1622094442253,793880,,4016,1
1622094442253,793900,,4007,1
1622094442253,793920,,4007,1
1622094442253,793940,,3328,1
1622094442253,793960,,2861,1
1622094442253,793980,,2235,1
1622094442253,794000,,1657,1
1622094442253,794021,,1297,1
1622094442253,794041,,1119,1
1622094442253,794061,,1059,1
1622094442253,794081,,1105,1
1622094442253,794101,,1243,1
1622094442253,794121,,1450,1
1622094442253,794141,,1625,1
1622094442253,794161,,1697,1
1622094442253,794181,,1752,1
1622094442253,794201,,1727,1
1622094442253,794221,,1817,1
1622094442253,794242,,1887,1
1622094442253,794262,,1893,1
1622094442253,794282,,1813,1
1622094442253,794302,,1700,1
1622094442253,794322,,1585,1
1622094442919,794343,,1455,1
1622094442919,794363,,1358,1
1622094442919,794383,,1307,1
1622094442919,794403,,1282,1
1622094442919,794423,,1280,1
1622094442919,794443,,1307,1
1622094442919,794464,,1345,1
1622094442919,794484,,1398,1
1622094442919,794504,,1456,1
1622094442919,794524,,1483,1
1622094442919,794544,,1510,1
1622094442919,794564,,1577,1
1622094442919,794584,,1742,1
1622094442919,794604,,2080,1
1622094442919,794624,,2559,1
1622094442919,794644,,3318,1
1622094442919,794664,,4011,1
1622094442919,794685,,4010,1
1622094442919,794705,,4009,1
1622094442919,794725,,4010,1
1622094442919,794745,,4016,1
1622094442919,794765,,4011,1
1622094442919,794785,,4010,1
1622094442919,794805,,3262,1
1622094442919,794825,,2625,1
1622094444107,794846,,2128,1
1622094444107,794866,,1760,1
1622094444107,794886,,1461,1
1622094444107,794907,,1228,1
1622094444107,794927,,1211,1
1622094444107,794947,,1209,1
1622094444107,794967,,1265,1
1622094444107,794987,,1411,1
1622094444107,795007,,1584,1
1622094444107,795027,,1709,1
1622094444107,795047,,1895,1
1622094444107,795067,,2025,1
1622094444107,795087,,2032,1
1622094444107,795107,,1942,1
1622094444107,795128,,1844,1
1622094444107,795148,,1600,1
1622094444107,795168,,1344,1
1622094444107,795188,,1173,1
1622094444107,795208,,1103,1
1622094444107,795228,,1045,1
1622094444107,795248,,1195,1
1622094444107,795268,,1360,1
1622094444107,795288,,1505,1
1622094444107,795308,,1616,1
1622094444107,795328,,1622,1
1622094446500,795348,,1520,1
1622094446500,795368,,1552,1
1622094446500,795388,,1587,1
1622094446500,795408,,1606,1
1622094446500,795428,,1641,1
1622094446500,795448,,1787,1
1622094446500,795468,,1971,1
1622094446500,795488,,2389,1
1622094446500,795508,,3041,1
1622094446500,795528,,3947,1
1622094446500,795548,,4003,1
1622094446500,795569,,4002,1
1622094446500,795589,,4016,1
1622094446500,795609,,4011,1
1622094446500,795629,,4003,1
1622094446500,795649,,4009,1
1622094446500,795669,,4001,1
1622094446500,795689,,4010,1
1622094446500,795709,,3309,1
1622094446500,795729,,2532,1
1622094446500,795749,,1850,1
1622094446500,795769,,1246,1
1622094446500,795790,,881,1
1622094446500,795810,,797,1
1622094446500,795830,,917,1
1622094447090,795850,,1180,1
1622094447090,795870,,1571,1
1622094447090,795890,,1872,1
1622094447090,795910,,2076,1
1622094447090,795930,,2122,1
1622094447090,795950,,2096,1
1622094447090,795970,,1858,1
1622094447090,795990,,1577,1
1622094447090,796011,,1339,1
1622094447090,796031,,1168,1
1622094447090,796051,,1052,1
1622094447090,796071,,1141,1
1622094447090,796091,,1250,1
1622094447090,796111,,1347,1
1622094447090,796131,,1290,1
1622094447090,796151,,1198,1
1622094447090,796171,,1286,1
1622094447090,796191,,1407,1
1622094447090,796211,,1510,1
1622094447090,796232,,1581,1
1622094447090,796252,,1614,1
1622094447090,796272,,1535,1
1622094447090,796292,,1418,1
1622094447090,796312,,1338,1
1622094447090,796332,,1321,1
1622094447097,796352,,1341,1
1622094447097,796372,,1671,1
1622094447097,796392,,2139,1
1622094447097,796412,,2867,1
1622094447097,796432,,3995,1
1622094447097,796452,,4009,1
1622094447097,796472,,4007,1
1622094447097,796492,,4012,1
1622094447097,796512,,4010,1
1622094447097,796532,,4009,1
1622094447097,796552,,4007,1
1622094447097,796572,,4011,1
1622094447097,796592,,4011,1
1622094447097,796612,,4014,1
1622094447097,796632,,3130,1
1622094447097,796652,,2240,1
1622094447097,796672,,1575,1
1622094447097,796692,,1101,1
1622094447097,796712,,874,1
1622094447097,796732,,875,1
1622094447097,796752,,1023,1
1622094447097,796772,,1280,1
1622094447097,796792,,1671,1
1622094447097,796812,,1952,1
1622094447097,796832,,2073,1
1622094447601,796853,,1915,1
1622094447601,796873,,1849,1
1622094447601,796894,,1744,1
1622094447601,796914,,1595,1
1622094447601,796934,,1431,1
1622094447601,796954,,1314,1
1622094447601,796974,,1181,1
1622094447601,796994,,1104,1
1622094447601,797014,,1105,1
1622094447601,797034,,1008,1
1622094447601,797054,,970,1
1622094447601,797074,,957,1
1622094447601,797094,,1153,1
1622094447601,797115,,1354,1
1622094447601,797135,,1507,1
1622094447601,797155,,1599,1
1622094447601,797175,,1645,1
1622094447601,797195,,1535,1
1622094447601,797215,,1414,1
1622094447601,797235,,1329,1
1622094447601,797255,,1307,1
1622094447601,797275,,1413,1
1622094447601,797295,,1721,1
1622094447601,797315,,2256,1
1622094447601,797336,,2974,1
1622094447637,798360,,4003,1
1622094447637,798380,,4013,1
1622094447637,798400,,4010,1
1622094447637,798420,,4015,1
1622094447637,798441,,4010,1
1622094447637,798461,,4010,1
1622094447637,798481,,4009,1
1622094447637,798501,,4004,1
1622094447637,798521,,4003,1
1622094447637,798541,,2858,1
1622094447637,798561,,2137,1
1622094447637,798581,,1475,1
1622094447637,798601,,1067,1
1622094447637,798621,,837,1
1622094447637,798641,,839,1
1622094447637,798662,,1040,1
1622094447637,798682,,1154,1
1622094447637,798702,,1229,1
1622094447637,798722,,1414,1
1622094447637,798742,,1494,1
1622094447637,798762,,1521,1
1622094447637,798782,,1504,1
1622094447637,798802,,1406,1
1622094447637,798822,,1349,1
1622094447637,798842,,1358,1
1622094448017,798863,,1357,1
1622094448017,798884,,1312,1
1622094448017,798904,,1254,1
1622094448017,798924,,1198,1
1622094448017,798944,,1162,1
1622094448017,798964,,1149,1
1622094448017,798984,,1158,1
1622094448017,799004,,1184,1
1622094448017,799024,,1266,1
1622094448017,799044,,1202,1
1622094448017,799064,,1152,1
1622094448017,799084,,1151,1
1622094448017,799105,,1193,1
1622094448017,799125,,1232,1
1622094448017,799145,,1402,1
1622094448017,799165,,1527,1
1622094448017,799185,,1606,1
1622094448017,799205,,1606,1
1622094448017,799225,,1605,1
1622094448017,799245,,1437,1
1622094448017,799265,,1273,1
1622094448017,799285,,1224,1
1622094448017,799305,,1351,1
1622094448017,799326,,1674,1
1622094448017,799346,,2379,1
1622094448236,799367,,3199,1
1622094448236,799388,,4000,1
1622094448236,799408,,4001,1
1622094448236,799428,,4013,1
1622094448236,799448,,4013,1
1622094448236,799468,,4013,1
1622094448236,799488,,4009,1
1622094448236,799508,,4007,1
1622094448236,799528,,3284,1
1622094448236,799549,,2677,1
1622094448236,799569,,2177,1
1622094448236,799589,,1808,1
1622094448236,799609,,1312,1
1622094448236,799629,,927,1
1622094448236,799649,,894,1
1622094448236,799669,,1043,1
1622094448236,799689,,1252,1
1622094448236,799709,,1501,1
1622094448236,799729,,1697,1
1622094448236,799749,,1809,1
1622094448236,799770,,1901,1
1622094448236,799790,,1762,1
1622094448236,799810,,1582,1
1622094448236,799830,,1388,1
1622094448236,799850,,1329,1
1622094448281,799871,,1375,1
1622094448281,799891,,1378,1
1622094448281,799911,,1397,1
1622094448281,799931,,1367,1
1622094448281,799951,,1369,1
1622094448281,799971,,1241,1
1622094448281,799992,,1136,1
1622094448281,800012,,1094,1
1622094448281,800032,,1091,1
1622094448281,800052,,1203,1
1622094448281,800072,,1392,1
1622094448281,800092,,1575,1
1622094448281,800112,,1611,1
1622094448281,800132,,1525,1
1622094448281,800152,,1482,1
1622094448281,800172,,1442,1
1622094448281,800192,,1402,1
1622094448281,800213,,1380,1
1622094448281,800233,,1361,1
1622094448281,800253,,1360,1
1622094448281,800273,,1518,1
1622094448281,800293,,1637,1
1622094448281,800313,,1735,1
1622094448281,800333,,1885,1
1622094448281,800353,,2193,1
1622094450908,800374,,2675,1
1622094450908,800394,,3259,1
1622094450908,800414,,4002,1
1622094450908,800435,,4007,1
1622094450908,800455,,4014,1
1622094450908,800475,,4010,1
1622094450908,800495,,4011,1
1622094450908,800515,,3309,1
1622094450908,800535,,2800,1
1622094450908,800555,,2321,1
1622094450908,800575,,2018,1
1622094450908,800595,,1749,1
1622094450908,800615,,1570,1
1622094450908,800635,,1267,1
1622094450908,800656,,1067,1
1622094450908,800676,,1182,1
1622094450908,800696,,1404,1
1622094450908,800716,,1680,1
1622094450908,800736,,1771,1
1622094450908,800756,,1789,1
1622094450908,800776,,1838,1
1622094450908,800796,,1809,1
1622094450908,800816,,1754,1
1622094450908,800836,,1690,1
1622094450908,800856,,1535,1
1622094453125,800876,,1575,1
1622094453125,800896,,1590,1
1622094453125,800916,,1565,1
1622094453125,800936,,1550,1
1622094453125,800956,,1389,1
1622094453125,800976,,1286,1
1622094453125,800996,,1301,1
1622094453125,801016,,1375,1
1622094453125,801036,,1330,1
1622094453125,801056,,1233,1
1622094453125,801076,,1269,1
1622094453125,801097,,1419,1
1622094453125,801117,,1585,1
1622094453125,801137,,1610,1
1622094453125,801157,,1497,1
1622094453125,801177,,1471,1
1622094453125,801197,,1552,1
1622094453125,801217,,1633,1
1622094453125,801237,,1600,1
1622094453125,801257,,1467,1
1622094453125,801277,,1394,1
1622094453125,801297,,1549,1
1622094453125,801318,,1815,1
1622094453125,801338,,2279,1
1622094453125,801358,,2799,1
1622094456118,801379,,3786,1
1622094456118,801400,,4009,1
1622094456118,801420,,4003,1
1622094456118,801440,,4011,1
1622094456118,801460,,4009,1
1622094456118,801480,,4013,1
1622094456118,801500,,4014,1
1622094456118,801520,,3750,1
1622094456118,801541,,2941,1
1622094456118,801561,,2349,1
1622094456118,801581,,1821,1
1622094456118,801601,,1519,1
1622094456118,801621,,1333,1
1622094456118,801641,,1254,1
1622094456118,801661,,1155,1
1622094456118,801681,,1134,1
1622094456118,801701,,1353,1
1622094456118,801722,,1617,1
1622094456118,801742,,1840,1
1622094456118,801763,,1850,1
1622094456118,801783,,1745,1
1622094456118,801803,,1765,1
1622094456118,801823,,1762,1
1622094456118,801843,,1744,1
1622094456118,801863,,1535,1
1622094456678,801883,,1321,1
1622094456678,801903,,1313,1
1622094456678,801923,,1331,1
1622094456678,801943,,1351,1
1622094456678,801963,,1246,1
1622094456678,801984,,1135,1
1622094456678,802004,,1223,1
1622094456678,802024,,1362,1
1622094456678,802044,,1503,1
1622094456678,802064,,1460,1
1622094456678,802084,,1356,1
1622094456678,802104,,1397,1
1622094456678,802124,,1514,1
1622094456678,802144,,1632,1
1622094456678,802164,,1647,1
1622094456678,802184,,1510,1
1622094456678,802205,,1488,1
1622094456678,802225,,1438,1
1622094456678,802245,,1409,1
1622094456678,802265,,1401,1
1622094456678,802285,,1389,1
1622094456678,802305,,1535,1
1622094456678,802325,,1755,1
1622094456678,802345,,2138,1
1622094456678,802365,,2686,1
1622094457422,802889,,1375,1
1622094457422,802909,,1398,1
1622094457422,802929,,1442,1
1622094457422,802949,,1393,1
1622094457422,802969,,1263,1
1622094457422,802989,,1178,1
1622094457422,803009,,1155,1
1622094457422,803029,,1207,1
1622094457422,803049,,1250,1
1622094457422,803069,,1301,1
1622094457422,803090,,1360,1
1622094457422,803110,,1359,1
1622094457422,803130,,1507,1
1622094457422,803150,,1648,1
1622094457422,803170,,1769,1
1622094457422,803190,,1680,1
1622094457422,803210,,1527,1
1622094457422,803230,,1474,1
1622094457422,803250,,1458,1
1622094457422,803270,,1591,1
1622094457422,803290,,1961,1
1622094457422,803311,,2530,1
1622094457422,803331,,3405,1
1622094457422,803351,,4006,1
1622094457422,803371,,4005,1
1622094459193,804900,,1273,1
1622094459193,804920,,1330,1
1622094459193,804940,,1398,1
1622094459193,804960,,1433,1
1622094459193,804980,,1510,1
1622094459193,805000,,1439,1
1622094459193,805020,,1366,1
1622094459193,805040,,1342,1
1622094459193,805060,,1373,1
1622094459193,805081,,1422,1
1622094459193,805101,,1450,1
1622094459193,805121,,1476,1
1622094459193,805141,,1535,1
1622094459193,805161,,1693,1
1622094459193,805181,,2079,1
1622094459193,805201,,2610,1
1622094459193,805221,,3362,1
1622094459193,805241,,4011,1
1622094459193,805261,,4006,1
1622094459193,805281,,4009,1
1622094459193,805302,,4007,1
1622094459193,805322,,4005,1
1622094459193,805342,,4007,1
1622094459193,805362,,4004,1
1622094459193,805382,,3310,1
1622094460335,806408,,976,1
1622094460335,806428,,1342,1
1622094460335,806448,,1695,1
1622094460335,806468,,1907,1
1622094460335,806488,,1903,1
1622094460335,806508,,1886,1
1622094460335,806528,,1788,1
1622094460335,806548,,1654,1
1622094460335,806568,,1520,1
1622094460335,806588,,1371,1
1622094460335,806608,,1327,1
1622094460335,806629,,1245,1
1622094460335,806649,,1177,1
1622094460335,806669,,1149,1
1622094460335,806689,,1109,1
1622094460335,806709,,1191,1
1622094460335,806729,,1231,1
1622094460335,806749,,1275,1
1622094460335,806769,,1315,1
1622094460335,806789,,1328,1
1622094460335,806810,,1427,1
1622094460335,806830,,1465,1
1622094460335,806851,,1490,1
1622094460335,806871,,1510,1
1622094460335,806891,,1488,1
1622094461530,807917,,1415,1
1622094461530,807937,,1522,1
1622094461530,807958,,1683,1
1622094461530,807978,,2033,1
1622094461530,807998,,2475,1
1622094461530,808018,,3083,1
1622094461530,808038,,4013,1
1622094461530,808058,,4013,1
1622094461530,808078,,4006,1
1622094461530,808098,,4011,1
1622094461530,808118,,4005,1
1622094461530,808138,,4003,1
1622094461530,808158,,4009,1
1622094461530,808179,,4003,1
1622094461530,808199,,4009,1
1622094461530,808219,,3726,1
1622094461530,808239,,2731,1
1622094461530,808259,,1936,1
1622094461530,808279,,1346,1
1622094461530,808299,,931,1
1622094461530,808319,,797,1
1622094461530,808339,,891,1
1622094461530,808360,,1161,1
1622094461530,808380,,1456,1
1622094461530,808401,,1695,1
1622094462135,808422,,1839,1
1622094462135,808442,,1985,1
1622094462135,808462,,2035,1
1622094462135,808482,,1981,1
1622094462135,808502,,1699,1
1622094462135,808522,,1424,1
1622094462135,808542,,1222,1
1622094462135,808562,,1100,1
1622094462135,808582,,1009,1
1622094462135,808602,,981,1
1622094462135,808623,,1008,1
1622094462135,808643,,1019,1
1622094462135,808663,,1206,1
1622094462135,808683,,1394,1
1622094462135,808703,,1552,1
1622094462135,808723,,1527,1
1622094462135,808743,,1393,1
1622094462135,808763,,1419,1
1622094462135,808783,,1479,1
1622094462135,808804,,1575,1
1622094462135,808824,,1472,1
1622094462135,808845,,1296,1
1622094462135,808865,,1348,1
1622094462135,808885,,1503,1
1622094462135,808905,,1833,1
1622094462430,808925,,2249,1
1622094462430,808945,,2987,1
1622094462430,808965,,4015,1
1622094462430,808985,,4011,1
1622094462430,809005,,4009,1
1622094462430,809025,,4007,1
1622094462430,809045,,4012,1
1622094462430,809066,,4015,1
1622094462430,809086,,4003,1
1622094462430,809106,,3728,1
1622094462430,809126,,2759,1
1622094462430,809146,,2090,1
1622094462430,809166,,1424,1
1622094462430,809186,,1051,1
1622094462430,809206,,885,1
1622094462430,809226,,783,1
1622094462430,809246,,758,1
1622094462430,809266,,924,1
1622094462430,809287,,1278,1
1622094462430,809307,,1631,1
1622094462430,809327,,1859,1
1622094462430,809347,,1837,1
1622094462430,809367,,1744,1
1622094462430,809387,,1729,1
1622094462430,809407,,1702,1
1622094462514,809929,,4003,1
1622094462514,809950,,3997,1
1622094462514,809970,,4013,1
1622094462514,809990,,4012,1
1622094462514,810010,,4010,1
1622094462514,810030,,4007,1
1622094462514,810050,,4010,1
1622094462514,810070,,4005,1
1622094462514,810090,,3407,1
1622094462514,810110,,2569,1
1622094462514,810130,,1979,1
1622094462514,810150,,1317,1
1622094462514,810171,,768,1
1622094462514,810191,,624,1
1622094462514,810211,,783,1
1622094462514,810231,,1111,1
1622094462514,810251,,1341,1
1622094462514,810271,,1457,1
1622094462514,810291,,1594,1
1622094462514,810311,,1759,1
1622094462514,810331,,1861,1
1622094462514,810351,,1792,1
1622094462514,810371,,1561,1
1622094462514,810392,,1334,1
1622094462514,810412,,1285,1
1622094462554,810433,,1246,1
1622094462554,810453,,1219,1
1622094462554,810473,,1232,1
1622094462554,810493,,1150,1
1622094462554,810513,,1150,1
1622094462554,810533,,1174,1
1622094462554,810553,,1219,1
1622094462554,810574,,1140,1
1622094462554,810594,,1125,1
1622094462554,810615,,1166,1
1622094462554,810635,,1206,1
1622094462554,810655,,1267,1
1622094462554,810675,,1335,1
1622094462554,810695,,1409,1
1622094462554,810715,,1471,1
1622094462554,810735,,1487,1
1622094462554,810755,,1475,1
1622094462554,810775,,1493,1
1622094462554,810795,,1584,1
1622094462554,810815,,2000,1
1622094462554,810836,,2650,1
1622094462554,810856,,3703,1
1622094462554,810876,,4006,1
1622094462554,810896,,4002,1
1622094462554,810916,,4002,1
1622094462637,811440,,1111,1
1622094462637,811460,,1197,1
1622094462637,811480,,1322,1
1622094462637,811501,,1274,1
1622094462637,811521,,1258,1
1622094462637,811541,,1360,1
1622094462637,811561,,1440,1
1622094462637,811581,,1530,1
1622094462637,811601,,1456,1
1622094462637,811621,,1392,1
1622094462637,811641,,1471,1
1622094462637,811661,,1577,1
1622094462637,811681,,1563,1
1622094462637,811701,,1456,1
1622094462637,811722,,1493,1
1622094462637,811742,,1872,1
1622094462637,811762,,2470,1
1622094462637,811782,,3333,1
1622094462637,811802,,4012,1
1622094462637,811822,,4011,1
1622094462637,811842,,4004,1
1622094462637,811862,,4005,1
1622094462637,811882,,4013,1
1622094462637,811902,,4007,1
1622094462637,811922,,4009,1
1622094462640,811942,,3759,1
1622094462640,811962,,2807,1
1622094462640,811982,,2189,1
1622094462640,812002,,1567,1
1622094462640,812022,,961,1
1622094462640,812042,,745,1
1622094462640,812062,,780,1
1622094462640,812082,,1010,1
1622094462640,812102,,1168,1
1622094462640,812122,,1282,1
1622094462640,812142,,1574,1
1622094462640,812163,,1823,1
1622094462640,812183,,2000,1
1622094462640,812203,,1947,1
1622094462640,812223,,1755,1
1622094462640,812243,,1602,1
1622094462640,812263,,1419,1
1622094462640,812283,,1267,1
1622094462640,812303,,1146,1
1622094462640,812323,,1040,1
1622094462640,812343,,1087,1
1622094462640,812363,,1200,1
1622094462640,812384,,1335,1
1622094462640,812404,,1303,1
1622094462640,812424,,1187,1
1622094462720,812445,,1218,1
1622094462720,812465,,1325,1
1622094462720,812485,,1439,1
1622094462720,812505,,1504,1
1622094462720,812525,,1509,1
1622094462720,812545,,1451,1
1622094462720,812565,,1459,1
1622094462720,812585,,1503,1
1622094462720,812606,,1463,1
1622094462720,812626,,1357,1
1622094462720,812646,,1450,1
1622094462720,812666,,1911,1
1622094462720,812686,,2581,1
1622094462720,812706,,3535,1
1622094462720,812726,,4011,1
1622094462720,812746,,4007,1
1622094462720,812766,,4003,1
1622094462720,812786,,4014,1
1622094462720,812806,,4011,1
1622094462720,812827,,4011,1
1622094462720,812847,,4015,1
1622094462720,812867,,4003,1
1622094462720,812887,,4012,1
1622094462720,812907,,3246,1
1622094462720,812927,,2294,1
1622094462737,812947,,1505,1
1622094462737,812967,,1072,1
1622094462737,812987,,869,1
1622094462737,813007,,880,1
1622094462737,813027,,914,1
1622094462737,813048,,1061,1
1622094462737,813068,,1282,1
1622094462737,813088,,1456,1
1622094462737,813108,,1587,1
1622094462737,813128,,1651,1
1622094462737,813148,,1603,1
1622094462737,813168,,1648,1
1622094462737,813188,,1645,1
1622094462737,813208,,1616,1
1622094462737,813228,,1410,1
1622094462737,813248,,1141,1
1622094462737,813269,,1081,1
1622094462737,813289,,1106,1
1622094462737,813309,,1189,1
1622094462737,813329,,1131,1
1622094462737,813349,,1023,1
1622094462737,813369,,1102,1
1622094462737,813389,,1223,1
1622094462737,813409,,1362,1
1622094462737,813429,,1344,1
1622094462753,813449,,1253,1
1622094462753,813469,,1329,1
1622094462753,813490,,1427,1
1622094462753,813510,,1455,1
1622094462753,813530,,1365,1
1622094462753,813550,,1256,1
1622094462753,813570,,1264,1
1622094462753,813590,,1360,1
1622094462753,813610,,1521,1
1622094462753,813630,,1644,1
1622094462753,813650,,1823,1
1622094462753,813670,,2319,1
1622094462753,813690,,3098,1
1622094462753,813711,,4013,1
1622094462753,813731,,4009,1
1622094462753,813751,,4001,1
1622094462753,813771,,4011,1
1622094462753,813791,,4005,1
1622094462753,813811,,4005,1
1622094462753,813831,,4012,1
1622094462753,813851,,4011,1
1622094462753,813871,,3410,1
1622094462753,813891,,2542,1
1622094462753,813911,,1884,1
1622094462753,813932,,1350,1
1622094462756,813952,,961,1
1622094462756,813972,,928,1
1622094462756,813992,,1078,1
1622094462756,814012,,1219,1
1622094462756,814032,,1312,1
1622094462756,814052,,1431,1
1622094462756,814072,,1552,1
1622094462756,814092,,1660,1
1622094462756,814112,,1681,1
1622094462756,814132,,1651,1
1622094462756,814153,,1584,1
1622094462756,814173,,1489,1
1622094462756,814193,,1424,1
1622094462756,814213,,1333,1
1622094462756,814233,,1251,1
1622094462756,814253,,1191,1
1622094462756,814273,,1088,1
1622094462756,814293,,1201,1
1622094462756,814313,,1308,1
1622094462756,814333,,1418,1
1622094462756,814353,,1358,1
1622094462756,814374,,1247,1
1622094462756,814394,,1237,1
1622094462756,814414,,1234,1
1622094462756,814434,,1253,1
1622094462871,814454,,1270,1
1622094462871,814474,,1411,1
1622094462871,814494,,1535,1
1622094462871,814514,,1600,1
1622094462871,814534,,1602,1
1622094462871,814554,,1566,1
1622094462871,814574,,1505,1
1622094462871,814595,,1520,1
1622094462871,814615,,1487,1
1622094462871,814635,,1643,1
1622094462871,814655,,2033,1
1622094462871,814675,,2537,1
1622094462871,814695,,3261,1
1622094462871,814715,,3997,1
1622094462871,814735,,4005,1
1622094462871,814755,,4001,1
1622094462871,814775,,3998,1
1622094462871,814795,,3682,1
1622094462871,814816,,3047,1
1622094462871,814836,,2545,1
1622094462871,814856,,2117,1
1622094462871,814876,,1712,1
1622094462871,814896,,1391,1
1622094462871,814916,,1296,1
1622094462871,814936,,1283,1
1622094463368,814957,,1328,1
1622094463368,814977,,1406,1
1622094463368,814997,,1573,1
1622094463368,815017,,1612,1
1622094463368,815038,,1590,1
1622094463368,815058,,1598,1
1622094463368,815078,,1611,1
1622094463368,815098,,1588,1
1622094463368,815118,,1683,1
1622094463368,815138,,1733,1
1622094463368,815158,,1712,1
1622094463368,815178,,1638,1
1622094463368,815198,,1543,1
1622094463368,815218,,1435,1
1622094463368,815238,,1349,1
1622094463368,815259,,1297,1
1622094463368,815279,,1291,1
1622094463368,815299,,1170,1
1622094463368,815319,,1126,1
1622094463368,815339,,1115,1
1622094463368,815359,,1152,1
1622094463368,815379,,1215,1
1622094463368,815399,,1232,1
1622094463368,815419,,1397,1
1622094463368,815439,,1562,1
1622094464262,815460,,1653,1
1622094464262,815481,,1664,1
1622094464262,815501,,1659,1
1622094464262,815521,,1551,1
1622094464262,815541,,1409,1
1622094464262,815561,,1402,1
1622094464262,815581,,1584,1
1622094464262,815601,,1905,1
1622094464262,815621,,2464,1
1622094464262,815641,,3206,1
1622094464262,815661,,3996,1
1622094464262,815681,,4002,1
1622094464262,815702,,4007,1
1622094464262,815722,,4010,1
1622094464262,815742,,3826,1
1622094464262,815762,,3165,1
1622094464262,815782,,2731,1
1622094464262,815802,,2351,1
1622094464262,815822,,2005,1
1622094464262,815842,,1808,1
1622094464262,815862,,1632,1
1622094464262,815882,,1499,1
1622094464262,815902,,1407,1
1622094464262,815923,,1434,1
1622094464262,815943,,1378,1
1622094464374,815963,,1366,1
1622094464374,815983,,1551,1
1622094464374,816003,,1744,1
1622094464374,816023,,1829,1
1622094464374,816043,,1869,1
1622094464374,816063,,1856,1
1622094464374,816083,,1800,1
1622094464374,816103,,1724,1
1622094464374,816123,,1630,1
1622094464374,816144,,1523,1
1622094464374,816164,,1431,1
1622094464374,816184,,1413,1
1622094464374,816204,,1328,1
1622094464374,816224,,1232,1
1622094464374,816244,,1189,1
1622094464374,816264,,1191,1
1622094464374,816284,,1227,1
1622094464374,816304,,1282,1
1622094464374,816324,,1315,1
1622094464374,816344,,1475,1
1622094464374,816365,,1619,1
1622094464374,816385,,1691,1
1622094464374,816405,,1708,1
1622094464374,816425,,1680,1
1622094464374,816445,,1629,1
1622094464877,816466,,1564,1
1622094464877,816486,,1503,1
1622094464877,816506,,1505,1
1622094464877,816526,,1415,1
1622094464877,816546,,1361,1
1622094464877,816566,,1386,1
1622094464877,816587,,1586,1
1622094464877,816607,,1994,1
1622094464877,816627,,2512,1
1622094464877,816647,,3172,1
1622094464877,816667,,3973,1
1622094464877,816687,,3999,1
1622094464877,816707,,4009,1
1622094464877,816727,,4005,1
1622094464877,816747,,4003,1
1622094464877,816767,,4003,1
1622094464877,816787,,3516,1
1622094464877,816808,,2975,1
1622094464877,816828,,2575,1
1622094464877,816848,,2167,1
1622094464877,816868,,1783,1
1622094464877,816888,,1513,1
1622094464877,816908,,1397,1
1622094464877,816928,,1225,1
1622094464877,816948,,1232,1
1622094465381,816969,,1439,1
1622094465381,816989,,1664,1
1622094465381,817009,,1871,1
1622094465381,817030,,1889,1
1622094465381,817050,,1856,1
1622094465381,817070,,1878,1
1622094465381,817090,,1854,1
1622094465381,817110,,1792,1
1622094465381,817130,,1690,1
1622094465381,817150,,1588,1
1622094465381,817170,,1482,1
1622094465381,817190,,1401,1
1622094465381,817210,,1360,1
1622094465381,817230,,1333,1
1622094465381,817251,,1331,1
1622094465381,817271,,1345,1
1622094465381,817291,,1414,1
1622094465381,817311,,1361,1
1622094465381,817331,,1296,1
1622094465381,817351,,1264,1
1622094465381,817371,,1396,1
1622094465381,817391,,1523,1
1622094465381,817411,,1602,1
1622094465381,817431,,1647,1
1622094465381,817451,,1653,1
1622094465899,817471,,1632,1
1622094465899,817491,,1599,1
1622094465899,817511,,1559,1
1622094465899,817531,,1562,1
1622094465899,817551,,1671,1
1622094465899,817571,,1807,1
1622094465899,817591,,2085,1
1622094465899,817611,,2527,1
1622094465899,817631,,3088,1
1622094465899,817651,,3684,1
1622094465899,817671,,3995,1
1622094465899,817692,,4006,1
1622094465899,817712,,4012,1
1622094465899,817732,,4006,1
1622094465899,817752,,3441,1
1622094465899,817772,,2921,1
1622094465899,817792,,2382,1
1622094465899,817812,,1866,1
1622094465899,817832,,1443,1
1622094465899,817852,,1140,1
1622094465899,817873,,1082,1
1622094465899,817893,,1225,1
1622094465899,817914,,1399,1
1622094465899,817934,,1637,1
1622094465899,817954,,1651,1
1622094466385,817974,,1739,1
1622094466385,817994,,1877,1
1622094466385,818014,,1936,1
1622094466385,818034,,1936,1
1622094466385,818054,,1867,1
1622094466385,818074,,1776,1
1622094466385,818094,,1662,1
1622094466385,818114,,1553,1
1622094466385,818135,,1458,1
1622094466385,818155,,1394,1
1622094466385,818175,,1345,1
1622094466385,818195,,1324,1
1622094466385,818215,,1313,1
1622094466385,818235,,1331,1
1622094466385,818255,,1350,1
1622094466385,818275,,1422,1
1622094466385,818295,,1351,1
1622094466385,818315,,1282,1
1622094466385,818335,,1264,1
1622094466385,818356,,1290,1
1622094466385,818376,,1313,1
1622094466385,818396,,1484,1
1622094466385,818416,,1609,1
1622094466385,818436,,1694,1
1622094466385,818456,,1709,1
1622094466934,818477,,1681,1
1622094466934,818497,,1646,1
1622094466934,818517,,1699,1
1622094466934,818537,,1766,1
1622094466934,818557,,1957,1
1622094466934,818578,,2356,1
1622094466934,818598,,2997,1
1622094466934,818618,,3984,1
1622094466934,818638,,4005,1
1622094466934,818658,,4001,1
1622094466934,818678,,4004,1
1622094466934,818698,,4007,1
1622094466934,818718,,4007,1
1622094466934,818738,,3615,1
1622094466934,818758,,2899,1
1622094466934,818778,,2302,1
1622094466934,818799,,1936,1
1622094466934,818819,,1683,1
1622094466934,818839,,1473,1
1622094466934,818859,,1335,1
1622094466934,818879,,1296,1
1622094466934,818899,,1343,1
1622094466934,818919,,1488,1
1622094466934,818939,,1559,1
1622094466934,818959,,1589,1
1622094467556,818980,,1600,1
1622094467556,819000,,1731,1
1622094467556,819021,,1829,1
1622094467556,819041,,1844,1
1622094467556,819061,,1791,1
1622094467556,819081,,1715,1
1622094467556,819101,,1561,1
1622094467556,819121,,1354,1
1622094467556,819141,,1200,1
1622094467556,819161,,1135,1
1622094467556,819181,,1099,1
1622094467556,819201,,1169,1
1622094467556,819221,,1331,1
1622094467556,819242,,1467,1
1622094467556,819262,,1530,1
1622094467556,819282,,1578,1
1622094467556,819302,,1523,1
1622094467556,819322,,1414,1
1622094467556,819342,,1348,1
1622094467556,819362,,1319,1
1622094467556,819382,,1317,1
1622094467556,819402,,1358,1
1622094467556,819422,,1517,1
1622094467556,819442,,1633,1
1622094467556,819463,,1683,1
1622094468272,819484,,1694,1
1622094468272,819504,,1706,1
1622094468272,819524,,1782,1
1622094468272,819544,,2035,1
1622094468272,819564,,2458,1
1622094468272,819584,,3043,1
1622094468272,819604,,3807,1
1622094468272,819624,,4007,1
1622094468272,819644,,4004,1
1622094468272,819664,,4003,1
1622094468272,819685,,4005,1
1622094468272,819705,,3996,1
1622094468272,819725,,3568,1
1622094468272,819745,,3063,1
1622094468272,819765,,2611,1
1622094468272,819785,,2233,1
1622094468272,819805,,1715,1
1622094468272,819825,,1329,1
1622094468272,819845,,1072,1
1622094468272,819865,,991,1
1622094468272,819885,,1085,1
1622094468272,819906,,1243,1
1622094468272,819926,,1573,1
1622094468272,819946,,1875,1
1622094468272,819966,,2065,1
1622094468400,819987,,2149,1
1622094468400,820007,,2123,1
1622094468400,820027,,2000,1
1622094468400,820047,,1840,1
1622094468400,820067,,1671,1
1622094468400,820087,,1570,1
1622094468400,820107,,1414,1
1622094468400,820128,,1266,1
1622094468400,820148,,1142,1
1622094468400,820168,,1103,1
1622094468400,820188,,1120,1
1622094468400,820208,,1126,1
1622094468400,820228,,1276,1
1622094468400,820248,,1446,1
1622094468400,820268,,1583,1
1622094468400,820288,,1647,1
1622094468400,820308,,1647,1
1622094468400,820328,,1555,1
1622094468400,820349,,1566,1
1622094468400,820369,,1584,1
1622094468400,820389,,1586,1
1622094468400,820409,,1579,1
1622094468400,820429,,1555,1
1622094468400,820449,,1569,1
1622094468400,820469,,1637,1
1622094468899,820489,,1846,1
1622094468899,820509,,2233,1
1622094468899,820529,,2841,1
1622094468899,820549,,3537,1
1622094468899,820570,,4003,1
1622094468899,820590,,4007,1
1622094468899,820610,,3995,1
1622094468899,820630,,4000,1
1622094468899,820650,,3615,1
1622094468899,820670,,3120,1
1622094468899,820690,,2682,1
1622094468899,820710,,2317,1
1622094468899,820730,,1765,1
1622094468899,820750,,1410,1
1622094468899,820770,,1183,1
1622094468899,820791,,1081,1
1622094468899,820811,,1139,1
1622094468899,820831,,1168,1
1622094468899,820851,,1271,1
1622094468899,820871,,1412,1
1622094468899,820891,,1579,1
1622094468899,820911,,1715,1
1622094468899,820931,,1774,1
1622094468899,820951,,1911,1
1622094468899,820971,,1985,1
1622094469570,820992,,1952,1
1622094469570,821013,,1838,1
1622094469570,821033,,1691,1
1622094469570,821053,,1535,1
1622094469570,821073,,1435,1
1622094469570,821093,,1316,1
1622094469570,821113,,1161,1
1622094469570,821133,,1018,1
1622094469570,821153,,1104,1
1622094469570,821173,,1243,1
1622094469570,821193,,1381,1
1622094469570,821213,,1471,1
1622094469570,821234,,1534,1
1622094469570,821254,,1563,1
1622094469570,821274,,1600,1
1622094469570,821294,,1552,1
1622094469570,821314,,1427,1
1622094469570,821334,,1333,1
1622094469570,821354,,1369,1
1622094469570,821374,,1393,1
1622094469570,821394,,1499,1
1622094469570,821414,,1738,1
1622094469570,821434,,2103,1
1622094469570,821455,,2800,1
1622094469570,821475,,3936,1
1622094470150,821496,,4007,1
1622094470150,821516,,4001,1
1622094470150,821536,,4001,1
1622094470150,821556,,4010,1
1622094470150,821576,,4010,1
1622094470150,821596,,4008,1
1622094470150,821616,,4007,1
1622094470150,821636,,4009,1
1622094470150,821656,,2789,1
1622094470150,821677,,2215,1
1622094470150,821697,,1712,1
1622094470150,821717,,1341,1
1622094470150,821737,,1136,1
1622094470150,821757,,1082,1
1622094470150,821777,,1210,1
1622094470150,821797,,1328,1
1622094470150,821817,,1433,1
1622094470150,821837,,1553,1
1622094470150,821858,,1651,1
1622094470150,821878,,1841,1
1622094470150,821899,,1952,1
1622094470150,821919,,1941,1
1622094470150,821939,,1861,1
1622094470150,821959,,1712,1
1622094470150,821979,,1612,1
1622094470412,821999,,1383,1
1622094470412,822019,,1294,1
1622094470412,822039,,1296,1
1622094470412,822059,,1257,1
1622094470412,822079,,1174,1
1622094470412,822099,,1120,1
1622094470412,822120,,1130,1
1622094470412,822140,,1188,1
1622094470412,822160,,1230,1
1622094470412,822180,,1408,1
1622094470412,822200,,1553,1
1622094470412,822220,,1675,1
1622094470412,822240,,1708,1
1622094470412,822260,,1687,1
1622094470412,822280,,1649,1
1622094470412,822300,,1630,1
1622094470412,822320,,1483,1
1622094470412,822341,,1408,1
1622094470412,822361,,1466,1
1622094470412,822381,,1905,1
1622094470412,822401,,2550,1
1622094470412,822421,,3583,1
1622094470412,822441,,4010,1
1622094470412,822461,,4001,1
1622094470412,822481,,4015,1
1622094471349,822501,,4012,1
1622094471349,822521,,4006,1
1622094471349,822541,,4013,1
1622094471349,822562,,4009,1
1622094471349,822582,,4011,1
1622094471349,822602,,3855,1
1622094471349,822622,,2687,1
1622094471349,822642,,1931,1
1622094471349,822662,,1340,1
1622094471349,822682,,971,1
1622094471349,822702,,925,1
1622094471349,822722,,1046,1
1622094471349,822742,,1248,1
1622094471349,822762,,1495,1
1622094471349,822783,,1749,1
1622094471349,822803,,1822,1
1622094471349,822823,,1806,1
1622094471349,822843,,1760,1
1622094471349,822863,,1675,1
1622094471349,822883,,1597,1
1622094471349,822903,,1625,1
1622094471349,822923,,1626,1
1622094471349,822943,,1581,1
1622094471349,822963,,1534,1
1622094471349,822983,,1412,1
1622094471557,823003,,1207,1
1622094471557,823023,,1194,1
1622094471557,823043,,1249,1
1622094471557,823063,,1270,1
1622094471557,823083,,1227,1
1622094471557,823103,,1232,1
1622094471557,823123,,1250,1
1622094471557,823143,,1294,1
1622094471557,823163,,1360,1
1622094471557,823183,,1373,1
1622094471557,823203,,1527,1
1622094471557,823224,,1665,1
1622094471557,823244,,1732,1
1622094471557,823264,,1726,1
1622094471557,823284,,1740,1
1622094471557,823304,,1691,1
1622094471557,823324,,1745,1
1622094471557,823344,,2070,1
1622094471557,823364,,2641,1
1622094471557,823384,,3374,1
1622094471557,823404,,4007,1
1622094471557,823424,,4016,1
1622094471557,823445,,4007,1
1622094471557,823465,,4009,1
1622094471557,823485,,4026,1
1622094471966,823506,,4003,1
1622094471966,823526,,4005,1
1622094471966,823546,,3255,1
1622094471966,823566,,2506,1
1622094471966,823586,,1905,1
1622094471966,823606,,1429,1
1622094471966,823626,,1074,1
1622094471966,823646,,919,1
1622094471966,823667,,963,1
1622094471966,823687,,1162,1
1622094471966,823707,,1393,1
1622094471966,823727,,1632,1
1622094471966,823747,,1839,1
1622094471966,823767,,1959,1
1622094471966,823787,,1990,1
1622094471966,823807,,1939,1
1622094471966,823827,,1840,1
1622094471966,823847,,1714,1
1622094471966,823867,,1569,1
1622094471966,823888,,1429,1
1622094471966,823908,,1321,1
1622094471966,823928,,1276,1
1622094471966,823948,,1123,1
1622094471966,823968,,1023,1
1622094471966,823988,,1008,1
1622094472920,824008,,1045,1
1622094472920,824028,,1239,1
1622094472920,824048,,1409,1
1622094472920,824068,,1551,1
1622094472920,824088,,1618,1
1622094472920,824109,,1662,1
1622094472920,824129,,1555,1
1622094472920,824149,,1438,1
1622094472920,824169,,1370,1
1622094472920,824189,,1361,1
1622094472920,824209,,1413,1
1622094472920,824229,,1793,1
1622094472920,824249,,2331,1
1622094472920,824269,,3059,1
1622094472920,824289,,4007,1
1622094472920,824309,,4014,1
1622094472920,824330,,4013,1
1622094472920,824350,,4013,1
1622094472920,824370,,4014,1
1622094472920,824390,,4015,1
1622094472920,824410,,4007,1
1622094472920,824430,,4007,1
1622094472920,824450,,3298,1
1622094472920,824470,,2593,1
1622094472920,824490,,1991,1
1622094473003,824510,,1497,1
1622094473003,824530,,1102,1
1622094473003,824551,,928,1
1622094473003,824571,,880,1
1622094473003,824591,,912,1
1622094473003,824611,,1028,1
1622094473003,824631,,1333,1
1622094473003,824651,,1676,1
1622094473003,824671,,1941,1
1622094473003,824691,,1969,1
1622094473003,824711,,1843,1
1622094473003,824731,,1723,1
1622094473003,824751,,1674,1
1622094473003,824772,,1600,1
1622094473003,824792,,1490,1
1622094473003,824812,,1386,1
1622094473003,824832,,1335,1
1622094473003,824852,,1158,1
1622094473003,824872,,1040,1
1622094473003,824892,,989,1
1622094473003,824912,,998,1
1622094473003,824932,,1069,1
1622094473003,824952,,1281,1
1622094473003,824972,,1445,1
1622094473003,824993,,1557,1
1622094473507,825014,,1616,1
1622094473507,825034,,1627,1
1622094473507,825054,,1607,1
1622094473507,825074,,1569,1
1622094473507,825094,,1524,1
1622094473507,825114,,1491,1
1622094473507,825134,,1486,1
1622094473507,825154,,1552,1
1622094473507,825174,,1791,1
1622094473507,825194,,2212,1
1622094473507,825215,,2774,1
1622094473507,825235,,3739,1
1622094473507,825255,,4009,1
1622094473507,825275,,4010,1
1622094473507,825295,,4007,1
1622094473507,825315,,4015,1
1622094473507,825335,,4015,1
1622094473507,825355,,4012,1
1622094473507,825375,,4013,1
1622094473507,825396,,4007,1
1622094473507,825416,,3318,1
1622094473507,825437,,2386,1
1622094473507,825457,,1774,1
1622094473507,825477,,1345,1
1622094473507,825497,,1056,1
1622094474052,825518,,947,1
1622094474052,825538,,1008,1
1622094474052,825558,,1173,1
1622094474052,825578,,1383,1
1622094474052,825598,,1583,1
1622094474052,825618,,1734,1
1622094474052,825638,,1817,1
1622094474052,825659,,1819,1
1622094474052,825679,,1755,1
1622094474052,825699,,1638,1
1622094474052,825719,,1520,1
1622094474052,825739,,1399,1
1622094474052,825759,,1298,1
1622094474052,825779,,1206,1
1622094474052,825799,,1154,1
1622094474052,825819,,1133,1
1622094474052,825839,,1139,1
1622094474052,825859,,1167,1
1622094474052,825880,,1207,1
1622094474052,825900,,1263,1
1622094474052,825920,,1201,1
1622094474052,825940,,1152,1
1622094474052,825960,,1221,1
1622094474052,825980,,1385,1
1622094474052,826000,,1552,1
1622094475304,826020,,1568,1
1622094475304,826040,,1594,1
1622094475304,826060,,1630,1
1622094475304,826080,,1561,1
1622094475304,826101,,1441,1
1622094475304,826121,,1443,1
1622094475304,826141,,1631,1
1622094475304,826161,,2082,1
1622094475304,826181,,2901,1
1622094475304,826201,,4011,1
1622094475304,826221,,4014,1
1622094475304,826241,,4010,1
1622094475304,826261,,4002,1
1622094475304,826281,,4007,1
1622094475304,826301,,4003,1
1622094475304,826322,,4003,1
1622094475304,826342,,4015,1
1622094475304,826362,,3161,1
1622094475304,826382,,2353,1
1622094475304,826402,,1630,1
1622094475304,826422,,1076,1
1622094475304,826442,,753,1
1622094475304,826462,,622,1
1622094475304,826482,,816,1
1622094475304,826502,,1122,1
1622094477482,826522,,1472,1
1622094477482,826543,,1753,1
1622094477482,826563,,1974,1
1622094477482,826583,,2025,1
1622094477482,826603,,1904,1
1622094477482,826623,,1747,1
1622094477482,826643,,1607,1
1622094477482,826663,,1419,1
1622094477482,826683,,1399,1
1622094477482,826703,,1406,1
1622094477482,826723,,1440,1
1622094477482,826743,,1312,1
1622094477482,826764,,1133,1
1622094477482,826784,,1147,1
1622094477482,826804,,1232,1
1622094477482,826824,,1296,1
1622094477482,826844,,1360,1
1622094477482,826864,,1389,1
1622094477482,826884,,1445,1
1622094477482,826904,,1351,1
1622094477482,826924,,1278,1
1622094477482,826944,,1255,1
1622094477482,826964,,1237,1
1622094477482,826985,,1344,1
1622094477482,827005,,1535,1
1622094481466,827026,,1796,1
1622094481466,827046,,2167,1
1622094481466,827066,,2649,1
1622094481466,827086,,3475,1
1622094481466,827106,,4003,1
1622094481466,827126,,3999,1
1622094481466,827146,,4013,1
1622094481466,827166,,4003,1
1622094481466,827186,,4014,1
1622094481466,827207,,4014,1
1622094481466,827227,,3834,1
1622094481466,827247,,2852,1
1622094481466,827267,,2222,1
1622094481466,827287,,1645,1
1622094481466,827307,,1305,1
1622094481466,827327,,1106,1
1622094481466,827347,,976,1
1622094481466,827367,,879,1
1622094481466,827387,,880,1
1622094481466,827407,,1168,1
1622094481466,827428,,1482,1
1622094481466,827448,,1781,1
1622094481466,827468,,1842,1
1622094481466,827488,,1822,1
1622094481466,827508,,1765,1
1622094483704,827529,,1633,1
1622094483704,827549,,1634,1
1622094483704,827569,,1632,1
1622094483704,827589,,1495,1
1622094483704,827609,,1408,1
1622094483704,827629,,1355,1
1622094483704,827650,,1346,1
1622094483704,827670,,1203,1
1622094483704,827690,,1089,1
1622094483704,827710,,1071,1
1622094483704,827730,,1085,1
1622094483704,827750,,1152,1
1622094483704,827770,,1229,1
1622094483704,827790,,1243,1
1622094483704,827810,,1451,1
1622094483704,827830,,1613,1
1622094483704,827850,,1747,1
1622094483704,827871,,1705,1
1622094483704,827891,,1517,1
1622094483704,827911,,1523,1
1622094483704,827931,,1680,1
1622094483704,827951,,2052,1
1622094483704,827971,,2479,1
1622094483704,827991,,3035,1
1622094483704,828011,,4002,1
1622094484600,828533,,1264,1
1622094484600,828553,,1296,1
1622094484600,828573,,1359,1
1622094484600,828593,,1351,1
1622094484600,828613,,1262,1
1622094484600,828633,,1203,1
1622094484600,828653,,1171,1
1622094484600,828673,,1188,1
1622094484600,828693,,1235,1
1622094484600,828713,,1315,1
1622094484600,828733,,1425,1
1622094484600,828754,,1482,1
1622094484600,828774,,1509,1
1622094484600,828794,,1520,1
1622094484600,828814,,1519,1
