localTime,remoteTime,label,bvp,signalOK
1622094381656,649145,,1696,1
1622094381656,649165,,1746,1
1622094381656,649185,,1744,1
1622094381656,649205,,1750,1
1622094381656,649225,,1728,1
1622094381656,649245,,1751,1
1622094381656,649265,,1910,1
1622094381656,649285,,2088,1
1622094381656,649305,,2207,1
1622094381656,649326,,2305,1
1622094381656,649346,,2323,1
1622094381656,649366,,2288,1
1622094381656,649386,,2201,1
1622094381656,649406,,2081,1
1622094381656,649426,,1964,1
1622094381656,649446,,1858,1
1622094381656,649466,,1760,1
1622094381656,649486,,1706,1
1622094381656,649506,,1693,1
1622094381656,649526,,1729,1
1622094381656,649547,,1744,1
1622094381656,649567,,1773,1
1622094381656,649587,,1803,1
1622094381656,649607,,1821,1
1622094381656,649627,,1861,1
1622094381686,650149,,2357,0
1622094381686,650169,,2336,0
1622094381686,650189,,2315,0
1622094381686,650210,,2125,0
1622094381686,650230,,1934,0
1622094381686,650250,,1719,0
1622094381686,650270,,1581,0
1622094381686,650290,,1511,0
1622094381686,650310,,1516,0
1622094381686,650330,,1553,0
1622094381686,650350,,1765,0
1622094381686,650370,,1965,0
1622094381686,650390,,2045,0
1622094381686,650410,,1938,0
1622094381686,650430,,1751,0
1622094381686,650450,,1756,0
1622094381686,650470,,1777,0
1622094381686,650490,,1822,0
1622094381686,650510,,1674,0
1622094381686,650530,,1457,0
1622094381686,650550,,1472,0
1622094381686,650570,,1559,0
1622094381686,650590,,1680,0
1622094381686,650610,,1611,0
1622094381686,650630,,1507,0
1622094381690,650650,,1441,0
1622094381690,650670,,1530,0
1622094381690,650690,,1639,0
1622094381690,650710,,1728,0
1622094381690,650730,,1746,0
1622094381690,650750,,1746,0
1622094381690,650770,,1585,0
1622094381690,650790,,1467,0
1622094381690,650810,,1460,0
1622094381690,650830,,1585,0
1622094381690,650850,,1866,0
1622094381690,650871,,2112,0
1622094381690,650891,,2287,0
1622094381690,650911,,2352,0
1622094381690,650931,,2288,0
1622094381690,650951,,2249,0
1622094381690,650971,,2100,0
1622094381690,650991,,1938,0
1622094381690,651011,,1814,0
1622094381690,651031,,1703,0
1622094381690,651051,,1726,0
1622094381690,651071,,1712,0
1622094381690,651092,,1699,0
1622094381690,651112,,1712,0
1622094381690,651132,,1691,1
1622094381702,651152,,1721,1
1622094381702,651172,,1869,1
1622094381702,651192,,1987,1
1622094381702,651212,,2009,1
1622094381702,651232,,1834,1
1622094381702,651252,,1728,1
1622094381702,651272,,1647,1
1622094381702,651292,,1568,1
1622094381702,651313,,1520,1
1622094381702,651333,,1501,1
1622094381702,651353,,1487,1
1622094381702,651373,,1642,1
1622094381702,651393,,1756,1
1622094381702,651413,,1854,1
1622094381702,651433,,1728,1
1622094381702,651453,,1598,1
1622094381702,651473,,1516,1
1622094381702,651493,,1467,1
1622094381702,651513,,1450,1
1622094381702,651534,,1468,1
1622094381702,651554,,1503,1
1622094381702,651574,,1584,1
1622094381702,651594,,1609,1
1622094381702,651614,,1646,1
1622094381702,651634,,1729,1
1622094381736,651654,,1845,1
1622094381736,651674,,2162,0
1622094381736,651694,,2506,0
1622094381736,651714,,2640,0
1622094381736,651734,,2512,0
1622094381736,651755,,2287,0
1622094381736,651775,,2099,0
1622094381736,651795,,1899,0
1622094381736,651815,,1755,0
1622094381736,651835,,1662,0
1622094381736,651855,,1615,0
1622094381736,651875,,1673,0
1622094381736,651895,,1699,0
1622094381736,651915,,1728,0
1622094381736,651935,,1775,0
1622094381736,651955,,1792,0
1622094381736,651976,,1891,0
1622094381736,651996,,1907,0
1622094381736,652016,,1894,0
1622094381736,652036,,1857,0
1622094381736,652056,,1771,0
1622094381736,652076,,1766,0
1622094381736,652096,,1855,0
1622094381736,652116,,1945,0
1622094381736,652136,,1872,0
1622094381753,652660,,1789,0
1622094381753,652680,,1806,1
1622094381753,652700,,1904,1
1622094381753,652720,,1936,1
1622094381753,652740,,1856,1
1622094381753,652760,,1798,1
1622094381753,652780,,1719,1
1622094381753,652800,,1839,1
1622094381753,652820,,1975,1
1622094381753,652840,,2099,1
1622094381753,652861,,2019,1
1622094381753,652881,,1800,1
1622094381753,652901,,1750,1
1622094381753,652921,,1795,1
1622094381753,652941,,1845,1
1622094381753,652961,,1877,1
1622094381753,652981,,1821,1
1622094381753,653001,,1725,1
1622094381753,653021,,1599,1
1622094381753,653041,,1523,1
1622094381753,653061,,1522,1
1622094381753,653082,,1547,1
1622094381753,653102,,1650,1
1622094381753,653122,,1701,1
1622094381753,653142,,1723,1
1622094381757,653163,,1696,1
1622094381757,653183,,1823,1
1622094381757,653203,,2018,1
1622094381757,653223,,2172,1
1622094381757,653243,,2245,1
1622094381757,653263,,2378,1
1622094381757,653283,,2485,0
1622094381757,653303,,2619,0
1622094381757,653323,,2755,0
1622094381757,653343,,2815,0
1622094381757,653363,,2672,0
1622094381757,653383,,2351,0
1622094381757,653403,,2060,0
1622094381757,653423,,1995,0
1622094381757,653443,,2005,0
1622094381757,653463,,2014,0
1622094381757,653483,,1904,0
1622094381757,653503,,1760,0
1622094381757,653524,,1863,0
1622094381757,653544,,1983,0
1622094381757,653564,,2111,0
1622094381757,653584,,2042,0
1622094381757,653604,,1942,0
1622094381757,653624,,1879,0
1622094381757,653644,,1813,0
1622094381878,653664,,1713,0
1622094381878,653684,,1791,0
1622094381878,653704,,1922,0
1622094381878,653724,,1939,0
1622094381878,653745,,1813,0
1622094381878,653765,,1702,0
1622094381878,653785,,1631,0
1622094381878,653805,,1554,0
1622094381878,653825,,1670,0
1622094381878,653845,,1811,0
1622094381878,653865,,1914,0
1622094381878,653885,,1979,0
1622094381878,653905,,1853,0
1622094381878,653925,,1886,0
1622094381878,653945,,1937,0
1622094381878,653966,,2002,0
1622094381878,653986,,1930,0
1622094381878,654006,,1648,0
1622094381878,654026,,1508,0
1622094381878,654046,,1511,0
1622094381878,654066,,1664,0
1622094381878,654086,,1924,0
1622094381878,654106,,2225,0
1622094381878,654126,,2490,0
1622094381878,654146,,2670,0
1622094382358,654167,,2684,0
1622094382358,654188,,2569,0
1622094382358,654208,,2416,0
1622094382358,654228,,2225,0
1622094382358,654248,,2058,0
1622094382358,654268,,1916,0
1622094382358,654288,,1829,1
1622094382358,654308,,1763,1
1622094382358,654328,,1724,1
1622094382358,654348,,1711,1
1622094382358,654368,,1712,1
1622094382358,654388,,1775,1
1622094382358,654409,,1664,1
1622094382358,654429,,1619,1
1622094382358,654449,,1744,1
1622094382358,654469,,1835,1
1622094382358,654489,,1872,1
1622094382358,654509,,1885,1
1622094382358,654529,,1872,1
1622094382358,654549,,1833,1
1622094382358,654569,,1663,1
1622094382358,654589,,1519,1
1622094382358,654609,,1403,1
1622094382358,654630,,1271,1
1622094382358,654650,,1374,1
1622094382958,654671,,1500,1
1622094382958,654691,,1607,1
1622094382958,654711,,1648,1
1622094382958,654731,,1687,1
1622094382958,654751,,1661,1
1622094382958,654771,,1515,1
1622094382958,654791,,1405,1
1622094382958,654811,,1366,1
1622094382958,654831,,1318,1
1622094382958,654852,,1507,1
1622094382958,654872,,1718,1
1622094382958,654892,,1939,1
1622094382958,654912,,2195,1
1622094382958,654932,,2476,0
1622094382958,654952,,2704,0
1622094382958,654972,,2682,0
1622094382958,654992,,2608,0
1622094382958,655012,,2519,0
1622094382958,655032,,2371,0
1622094382958,655052,,2375,0
1622094382958,655073,,2416,0
1622094382958,655093,,2482,0
1622094382958,655113,,2355,0
1622094382958,655133,,2175,0
1622094382958,655153,,2192,0
1622094383565,655173,,2274,0
1622094383565,655193,,2319,0
1622094383565,655213,,2288,0
1622094383565,655233,,2230,0
1622094383565,655253,,2077,0
1622094383565,655273,,1877,0
1622094383565,655294,,1722,0
1622094383565,655314,,1648,0
1622094383565,655334,,1582,0
1622094383565,655354,,1658,0
1622094383565,655374,,1803,0
1622094383565,655394,,1941,0
1622094383565,655414,,1970,0
1622094383565,655434,,1823,0
1622094383565,655454,,1729,0
1622094383565,655474,,1649,0
1622094383565,655494,,1603,0
1622094383565,655515,,1595,0
1622094383565,655535,,1584,0
1622094383565,655555,,1616,0
1622094383565,655575,,1798,0
1622094383565,655595,,1911,0
1622094383565,655615,,1977,0
1622094383565,655635,,2087,0
1622094383565,655655,,2171,0
1622094384189,655675,,2179,0
1622094384189,655695,,2373,0
1622094384189,655715,,2613,0
1622094384189,655736,,2659,0
1622094384189,655756,,2491,0
1622094384189,655776,,2418,0
1622094384189,655796,,2338,0
1622094384189,655816,,2222,0
1622094384189,655836,,2112,0
1622094384189,655856,,1997,0
1622094384189,655876,,1811,0
1622094384189,655896,,1655,0
1622094384189,655916,,1589,0
1622094384189,655936,,1601,1
1622094384189,655957,,1619,1
1622094384189,655977,,1815,1
1622094384189,655997,,2027,1
1622094384189,656017,,2135,1
1622094384189,656037,,2222,1
1622094384189,656057,,2071,1
1622094384189,656077,,1903,1
1622094384189,656097,,1742,1
1622094384189,656117,,1623,1
1622094384189,656137,,1555,1
1622094384189,656157,,1472,1
1622094384822,656177,,1562,1
1622094384822,656197,,1709,1
1622094384822,656217,,1819,1
1622094384822,656237,,1846,1
1622094384822,656257,,1841,1
1622094384822,656277,,1805,1
1622094384822,656297,,1633,1
1622094384822,656317,,1497,1
1622094384822,656337,,1457,1
1622094384822,656357,,1488,1
1622094384822,656377,,1743,1
1622094384822,656398,,2155,1
1622094384822,656418,,2544,1
1622094384822,656438,,2701,1
1622094384822,656458,,2608,1
1622094384822,656478,,2437,1
1622094384822,656498,,2367,1
1622094384822,656518,,2255,1
1622094384822,656538,,2112,1
1622094384822,656558,,1963,1
1622094384822,656578,,1909,1
1622094384822,656598,,1726,1
1622094384822,656619,,1568,1
1622094384822,656639,,1498,1
1622094384822,656659,,1511,1
1622094385485,656679,,1572,1
1622094385485,656699,,1796,1
1622094385485,656719,,1959,1
1622094385485,656739,,2101,1
1622094385485,656759,,2091,1
1622094385485,656779,,1906,1
1622094385485,656799,,1744,1
1622094385485,656819,,1585,1
1622094385485,656840,,1499,1
1622094385485,656860,,1472,1
1622094385485,656880,,1429,1
1622094385485,656900,,1583,1
1622094385485,656920,,1714,1
1622094385485,656940,,1779,1
1622094385485,656960,,1804,1
1622094385485,656980,,1839,1
1622094385485,657000,,1749,1
1622094385485,657020,,1559,1
1622094385485,657040,,1428,1
1622094385485,657061,,1367,1
1622094385485,657081,,1345,1
1622094385485,657101,,1553,1
1622094385485,657121,,1919,1
1622094385485,657141,,2250,1
1622094385485,657161,,2603,1
1622094386015,657181,,2653,1
1622094386015,657201,,2645,1
1622094386015,657221,,2567,1
1622094386015,657241,,2391,1
1622094386015,657261,,2227,1
1622094386015,657282,,1902,1
1622094386015,657302,,1710,1
1622094386015,657322,,1555,1
1622094386015,657342,,1488,1
1622094386015,657362,,1493,1
1622094386015,657382,,1495,1
1622094386015,657402,,1622,1
1622094386015,657422,,1839,1
1622094386015,657442,,1982,1
1622094386015,657462,,2110,1
1622094386015,657482,,2026,1
1622094386015,657503,,1878,1
1622094386015,657523,,1726,1
1622094386015,657543,,1606,1
1622094386015,657563,,1535,1
1622094386015,657583,,1476,1
1622094386015,657603,,1482,1
1622094386015,657623,,1621,1
1622094386015,657643,,1745,1
1622094386015,657663,,1826,1
1622094386036,657684,,1741,1
1622094386036,657704,,1696,1
1622094386036,657725,,1669,1
1622094386036,657745,,1663,1
1622094386036,657765,,1520,1
1622094386036,657785,,1395,1
1622094386036,657805,,1376,1
1622094386036,657825,,1393,1
1622094386036,657845,,1448,1
1622094386036,657865,,1591,1
1622094386036,657885,,1799,1
1622094386036,657906,,2014,1
1622094386036,657926,,2384,1
1622094386036,657947,,2685,1
1622094386036,657967,,2777,1
1622094386036,657987,,2684,1
1622094386036,658007,,2355,1
1622094386036,658027,,2043,1
1622094386036,658047,,1782,1
1622094386036,658067,,1610,1
1622094386036,658087,,1518,1
1622094386036,658107,,1445,1
1622094386036,658127,,1590,1
1622094386036,658147,,1758,1
1622094386036,658168,,1870,1
1622094386402,658189,,1925,1
1622094386402,658209,,1935,1
1622094386402,658229,,1946,1
1622094386402,658249,,1872,1
1622094386402,658269,,1703,1
1622094386402,658289,,1569,1
1622094386402,658309,,1421,1
1622094386402,658329,,1511,1
1622094386402,658349,,1642,1
1622094386402,658369,,1727,1
1622094386402,658390,,1751,1
1622094386402,658410,,1741,1
1622094386402,658430,,1677,1
1622094386402,658450,,1616,1
1622094386402,658470,,1569,1
1622094386402,658490,,1527,1
1622094386402,658510,,1506,1
1622094386402,658530,,1504,1
1622094386402,658550,,1552,1
1622094386402,658570,,1447,1
1622094386402,658590,,1393,1
1622094386402,658611,,1413,1
1622094386402,658631,,1672,1
1622094386402,658651,,2085,1
1622094386402,658671,,2390,1
1622094386890,658692,,2578,1
1622094386890,658712,,2581,1
1622094386890,658732,,2431,1
1622094386890,658752,,2214,1
1622094386890,658772,,2001,1
1622094386890,658792,,1807,1
1622094386890,658812,,1661,1
1622094386890,658832,,1581,1
1622094386890,658852,,1535,1
1622094386890,658872,,1550,1
1622094386890,658892,,1637,1
1622094386890,658912,,1599,1
1622094386890,658932,,1520,1
1622094386890,658952,,1628,1
1622094386890,658972,,1758,1
1622094386890,658992,,1835,1
1622094386890,659012,,1841,1
1622094386890,659032,,1815,1
1622094386890,659052,,1830,1
1622094386890,659072,,1653,1
1622094386890,659092,,1478,1
1622094386890,659112,,1385,1
1622094386890,659132,,1314,1
1622094386890,659152,,1450,1
1622094386890,659172,,1617,1
1622094387383,659193,,1728,1
1622094387383,659213,,1769,1
1622094387383,659233,,1762,1
1622094387383,659253,,1763,1
1622094387383,659274,,1591,1
1622094387383,659294,,1486,1
1622094387383,659314,,1522,1
1622094387383,659334,,1671,1
1622094387383,659354,,2042,1
1622094387383,659374,,2393,1
1622094387383,659394,,2679,1
1622094387383,659414,,2630,1
1622094387383,659434,,2364,1
1622094387383,659454,,2207,1
1622094387383,659474,,2091,1
1622094387383,659495,,1984,1
1622094387383,659515,,1904,1
1622094387383,659535,,1827,1
1622094387383,659555,,1795,1
1622094387383,659575,,1734,1
1622094387383,659595,,1599,1
1622094387383,659615,,1522,1
1622094387383,659635,,1478,1
1622094387383,659655,,1591,1
1622094387383,659675,,1793,1
1622094387890,659696,,1926,1
1622094387890,659717,,1987,1
1622094387890,659737,,1983,1
1622094387890,659757,,1937,1
1622094387890,659777,,1866,1
1622094387890,659797,,1786,1
1622094387890,659817,,1717,1
1622094387890,659837,,1657,1
1622094387890,659857,,1659,1
1622094387890,659877,,1523,1
1622094387890,659897,,1427,1
1622094387890,659917,,1392,1
1622094387890,659938,,1386,1
1622094387890,659958,,1459,1
1622094387890,659978,,1657,1
1622094387890,659998,,1823,1
1622094387890,660018,,1936,1
1622094387890,660038,,2074,1
1622094387890,660058,,2252,1
1622094387890,660078,,2431,1
1622094387890,660098,,2609,1
1622094387890,660118,,2711,1
1622094387890,660138,,2698,1
1622094387890,660159,,2559,1
1622094387890,660179,,2441,1
1622094388507,660199,,2099,1
1622094388507,660219,,1950,1
1622094388507,660239,,1938,1
1622094388507,660259,,1904,1
1622094388507,660279,,1801,1
1622094388507,660299,,1706,1
1622094388507,660319,,1675,1
1622094388507,660339,,1694,1
1622094388507,660359,,1711,1
1622094388507,660380,,1902,1
1622094388507,660400,,2071,1
1622094388507,660420,,2180,1
1622094388507,660440,,2178,1
1622094388507,660460,,2109,1
1622094388507,660480,,2002,1
1622094388507,660500,,1957,1
1622094388507,660520,,1764,1
1622094388507,660540,,1599,1
1622094388507,660560,,1429,1
1622094388507,660580,,1502,1
1622094388507,660601,,1672,1
1622094388507,660621,,1805,1
1622094388507,660641,,1883,1
1622094388507,660661,,1915,1
1622094388507,660681,,1904,1
1622094389097,660701,,1696,1
1622094389097,660721,,1674,1
1622094389097,660741,,1727,1
1622094389097,660761,,1759,1
1622094389097,660781,,1805,1
1622094389097,660801,,2038,1
1622094389097,660822,,2383,1
1622094389097,660842,,2660,1
1622094389097,660862,,2831,1
1622094389097,660882,,2859,1
1622094389097,660902,,2766,1
1622094389097,660922,,2589,1
1622094389097,660942,,2383,1
1622094389097,660962,,2192,1
1622094389097,660982,,2027,1
1622094389097,661002,,1791,1
1622094389097,661022,,1618,1
1622094389097,661043,,1562,1
1622094389097,661063,,1577,1
1622094389097,661083,,1643,1
1622094389097,661103,,1872,1
1622094389097,661123,,2082,1
1622094389097,661143,,2221,1
1622094389097,661163,,2257,1
1622094389097,661183,,2225,1
1622094389442,661204,,2130,1
1622094389442,661224,,2032,1
1622094389442,661244,,1916,1
1622094389442,661265,,1858,1
1622094389442,661285,,1765,1
1622094389442,661305,,1619,1
1622094389442,661325,,1498,1
1622094389442,661345,,1456,1
1622094389442,661365,,1482,1
1622094389442,661385,,1485,1
1622094389442,661405,,1675,1
1622094389442,661425,,1825,1
1622094389442,661445,,1968,1
1622094389442,661465,,1885,1
1622094389442,661486,,1741,1
1622094389442,661506,,1889,1
1622094389442,661526,,2154,1
1622094389442,661546,,2453,1
1622094389442,661566,,2710,1
1622094389442,661586,,2882,1
1622094389442,661606,,2785,1
1622094389442,661626,,2557,1
1622094389442,661646,,2286,1
1622094389442,661666,,2080,1
1622094389442,661686,,1840,1
1622094390098,661706,,1827,1
1622094390098,661726,,1904,1
1622094390098,661746,,1981,1
1622094390098,661766,,2021,1
1622094390098,661786,,2027,1
1622094390098,661806,,2017,1
1622094390098,661826,,2022,1
1622094390098,661846,,2022,1
1622094390098,661866,,2002,1
1622094390098,661886,,1979,1
1622094390098,661906,,1935,1
1622094390098,661927,,1884,1
1622094390098,661947,,1830,1
1622094390098,661967,,1775,1
1622094390098,661987,,1734,1
1622094390098,662007,,1744,1
1622094390098,662027,,1615,1
1622094390098,662047,,1492,1
1622094390098,662067,,1447,1
1622094390098,662087,,1451,1
1622094390098,662107,,1474,1
1622094390098,662127,,1646,1
1622094390098,662148,,1799,1
1622094390098,662168,,1899,1
1622094390098,662188,,1844,1
1622094390466,662208,,1840,1
1622094390466,662228,,2116,1
1622094390466,662248,,2438,1
1622094390466,662268,,2686,1
1622094390466,662288,,2795,1
1622094390466,662308,,2752,1
1622094390466,662328,,2593,1
1622094390466,662348,,2378,1
1622094390466,662369,,2158,1
1622094390466,662389,,1966,1
1622094390466,662409,,1895,1
1622094390466,662429,,1722,1
1622094390466,662449,,1531,1
1622094390466,662469,,1435,1
1622094390466,662489,,1451,1
1622094390466,662509,,1482,1
1622094390466,662529,,1693,1
1622094390466,662549,,1943,1
1622094390466,662569,,2086,1
1622094390466,662590,,2121,1
1622094390466,662610,,2068,1
1622094390466,662630,,1963,1
1622094390466,662650,,1840,1
1622094390466,662670,,1730,1
1622094390466,662690,,1648,1
1622094391008,662711,,1602,1
1622094391008,662731,,1574,1
1622094391008,662751,,1551,1
1622094391008,662771,,1552,1
1622094391008,662791,,1561,1
1622094391008,662812,,1609,1
1622094391008,662832,,1605,1
1622094391008,662852,,1491,1
1622094391008,662872,,1456,1
1622094391008,662892,,1563,1
1622094391008,662912,,1731,1
1622094391008,662932,,2111,1
1622094391008,662952,,2487,1
1622094391008,662972,,2732,1
1622094391008,662992,,2773,1
1622094391008,663012,,2659,1
1622094391008,663032,,2437,1
1622094391008,663052,,2193,1
1622094391008,663072,,1978,1
1622094391008,663092,,1822,1
1622094391008,663112,,1712,1
1622094391008,663132,,1586,1
1622094391008,663152,,1474,1
1622094391008,663172,,1450,1
1622094391008,663192,,1493,1
1622094391650,663213,,1549,1
1622094391650,663233,,1782,1
1622094391650,663254,,2016,1
1622094391650,663274,,2081,1
1622094391650,663294,,1961,1
1622094391650,663314,,1776,1
1622094391650,663334,,1636,1
1622094391650,663354,,1675,1
1622094391650,663374,,1725,1
1622094391650,663394,,1770,1
1622094391650,663414,,1776,1
1622094391650,663434,,1744,1
1622094391650,663454,,1737,1
1622094391650,663475,,1599,1
1622094391650,663495,,1426,1
1622094391650,663515,,1341,1
1622094391650,663535,,1291,1
1622094391650,663555,,1520,1
1622094391650,663575,,1841,1
1622094391650,663595,,2144,1
1622094391650,663615,,2458,1
1622094391650,663635,,2618,1
1622094391650,663655,,2643,1
1622094391650,663675,,2571,1
1622094391650,663696,,2266,1
1622094391913,663716,,1904,1
1622094391913,663736,,1776,1
1622094391913,663756,,1778,1
1622094391913,663776,,1737,1
1622094391913,663796,,1609,1
1622094391913,663816,,1503,1
1622094391913,663836,,1418,1
1622094391913,663856,,1533,1
1622094391913,663876,,1687,1
1622094391913,663896,,1862,1
1622094391913,663917,,1951,1
1622094391913,663937,,1961,1
1622094391913,663957,,1920,1
1622094391913,663977,,1853,1
1622094391913,663997,,1769,1
1622094391913,664017,,1706,1
1622094391913,664037,,1623,1
1622094391913,664057,,1599,1
1622094391913,664077,,1507,1
1622094391913,664097,,1373,1
1622094391913,664117,,1284,1
1622094391913,664138,,1239,1
1622094391913,664158,,1286,1
1622094391913,664178,,1459,1
1622094391913,664198,,1626,1
1622094392463,664219,,1761,1
1622094392463,664239,,1893,1
1622094392463,664259,,2047,1
1622094392463,664279,,2256,1
1622094392463,664299,,2262,1
1622094392463,664319,,2195,1
1622094392463,664339,,2078,1
1622094392463,664360,,1949,1
1622094392463,664380,,1966,1
1622094392463,664400,,1962,1
1622094392463,664420,,1932,1
1622094392463,664440,,1856,1
1622094392463,664460,,1837,1
1622094392463,664480,,1658,1
1622094392463,664500,,1488,1
1622094392463,664520,,1409,1
1622094392463,664540,,1410,1
1622094392463,664560,,1420,1
1622094392463,664581,,1610,1
1622094392463,664601,,1789,1
1622094392463,664621,,1879,1
1622094392463,664641,,1892,1
1622094392463,664661,,1845,1
1622094392463,664681,,1761,1
1622094392463,664701,,1666,1
1622094393315,664722,,1599,1
1622094393315,664742,,1552,1
1622094393315,664762,,1519,1
1622094393315,664782,,1498,1
1622094393315,664803,,1490,1
1622094393315,664823,,1499,1
1622094393315,664843,,1516,1
1622094393315,664863,,1521,1
1622094393315,664883,,1520,1
1622094393315,664903,,1600,1
1622094393315,664923,,1595,1
1622094393315,664943,,1630,1
1622094393315,664963,,1693,1
1622094393315,664983,,1952,1
1622094393315,665003,,2194,1
1622094393315,665023,,2333,1
1622094393315,665043,,2329,1
1622094393315,665063,,2218,1
1622094393315,665083,,2102,1
1622094393315,665103,,1823,1
1622094393315,665123,,1590,1
1622094393315,665143,,1446,1
1622094393315,665163,,1357,1
1622094393315,665183,,1413,1
1622094393315,665203,,1609,1
1622094393542,665224,,1794,1
1622094393542,665245,,1915,1
1622094393542,665265,,1968,1
1622094393542,665285,,2000,1
1622094393542,665305,,1851,1
1622094393542,665325,,1712,1
1622094393542,665345,,1591,1
1622094393542,665365,,1494,1
1622094393542,665385,,1491,1
1622094393542,665405,,1630,1
1622094393542,665425,,1754,1
1622094393542,665445,,1803,1
1622094393542,665466,,1787,1
1622094393542,665486,,1792,1
1622094393542,665506,,1654,1
1622094393542,665526,,1472,1
1622094393542,665546,,1362,1
1622094393542,665566,,1331,1
1622094393542,665586,,1315,1
1622094393542,665606,,1485,1
1622094393542,665626,,1667,1
1622094393542,665646,,1854,0
1622094393542,665666,,2059,0
1622094393542,665687,,2223,0
1622094393542,665707,,2399,0
1622094393960,665727,,2323,0
1622094393960,665747,,2283,0
1622094393960,665767,,2183,0
1622094393960,665787,,2107,0
1622094393960,665807,,1874,0
1622094393960,665827,,1635,0
1622094393960,665847,,1477,0
1622094393960,665867,,1419,0
1622094393960,665887,,1378,0
1622094393960,665908,,1556,0
1622094393960,665928,,1767,0
1622094393960,665948,,1930,0
1622094393960,665968,,2015,0
1622094393960,665988,,2044,0
1622094393960,666008,,2010,0
1622094393960,666028,,1807,0
1622094393960,666048,,1651,0
1622094393960,666068,,1559,0
1622094393960,666088,,1485,0
1622094393960,666108,,1584,0
1622094393960,666129,,1735,0
1622094393960,666149,,1890,0
1622094393960,666169,,1822,0
1622094393960,666189,,1670,0
1622094393960,666209,,1620,0
1622094394517,666230,,1520,0
1622094394517,666250,,1606,0
1622094394517,666270,,1733,0
1622094394517,666290,,1792,0
1622094394517,666310,,1802,0
1622094394517,666330,,1785,0
1622094394517,666351,,1754,0
1622094394517,666371,,1742,0
1622094394517,666391,,1757,0
1622094394517,666411,,1853,0
1622094394517,666431,,2009,0
1622094394517,666451,,2210,0
1622094394517,666471,,2385,0
1622094394517,666491,,2459,0
1622094394517,666511,,2419,0
1622094394517,666531,,2320,0
1622094394517,666551,,2160,0
1622094394517,666572,,1991,0
1622094394517,666592,,1914,0
1622094394517,666612,,1776,0
1622094394517,666632,,1617,0
1622094394517,666652,,1526,0
1622094394517,666672,,1513,0
1622094394517,666692,,1571,0
1622094394517,666712,,1616,1
1622094396433,666733,,1853,1
1622094396433,666753,,2034,1
1622094396433,666773,,2134,1
1622094396433,666794,,2135,1
1622094396433,666814,,2113,1
1622094396433,666834,,1968,1
1622094396433,666854,,1750,1
1622094396433,666874,,1600,1
1622094396433,666894,,1507,1
1622094396433,666914,,1441,1
1622094396433,666934,,1585,1
1622094396433,666954,,1755,1
1622094396433,666975,,1863,1
1622094396433,666995,,1904,1
1622094396433,667016,,1885,1
1622094396433,667036,,1846,1
1622094396433,667056,,1795,1
1622094396433,667076,,1787,1
1622094396433,667096,,1658,1
1622094396433,667116,,1456,1
1622094396433,667136,,1526,1
1622094396433,667156,,1743,1
1622094396433,667176,,2069,1
1622094396433,667196,,2251,1
1622094396433,667216,,2285,1
1622094398208,667236,,2416,1
1622094398208,667256,,2512,1
1622094398208,667276,,2523,1
1622094398208,667296,,2388,1
1622094398208,667316,,2042,1
1622094398208,667336,,1883,1
1622094398208,667356,,1842,1
1622094398208,667376,,1886,1
1622094398208,667396,,1794,1
1622094398208,667416,,1621,1
1622094398208,667436,,1617,1
1622094398208,667457,,1776,1
1622094398208,667477,,1973,1
1622094398208,667497,,2011,1
1622094398208,667517,,1874,1
1622094398208,667537,,1827,1
1622094398208,667557,,1903,1
1622094398208,667577,,1985,1
1622094398208,667597,,1959,1
1622094398208,667617,,1797,1
1622094398208,667637,,1633,1
1622094398208,667657,,1670,1
1622094398208,667678,,1764,1
1622094398208,667698,,1781,1
1622094398208,667718,,1661,1
1622094400606,667738,,1547,1
1622094400606,667758,,1621,1
1622094400606,667778,,1723,1
1622094400606,667798,,1815,1
1622094400606,667818,,1740,1
1622094400606,667838,,1605,1
1622094400606,667858,,1707,1
1622094400606,667878,,1867,1
1622094400606,667899,,2115,1
1622094400606,667919,,2210,1
1622094400606,667939,,2256,1
1622094400606,667959,,2465,1
1622094400606,667979,,2589,1
1622094400606,667999,,2625,1
1622094400606,668019,,2384,1
1622094400606,668039,,2063,1
1622094400606,668059,,1930,1
1622094400606,668079,,1905,1
1622094400606,668099,,1947,1
1622094400606,668120,,1801,1
1622094400606,668140,,1623,1
1622094400606,668160,,1680,1
1622094400606,668180,,1811,1
1622094400606,668200,,1982,1
1622094400606,668220,,1949,1
1622094401417,668241,,1840,1
1622094401417,668261,,1894,1
1622094401417,668281,,2000,1
1622094401417,668301,,1999,1
1622094401417,668321,,1865,1
1622094401417,668342,,1664,1
1622094401417,668362,,1647,1
1622094401417,668382,,1730,1
1622094401417,668402,,1856,1
1622094401417,668422,,1815,1
1622094401417,668442,,1676,1
1622094401417,668462,,1655,1
1622094401417,668482,,1750,1
1622094401417,668502,,1894,1
1622094401417,668522,,1845,1
1622094401417,668542,,1689,1
1622094401417,668562,,1629,1
1622094401417,668582,,1729,1
1622094401417,668602,,1930,1
1622094401417,668622,,2075,1
1622094401417,668642,,2149,1
1622094401417,668662,,2287,1
1622094401417,668682,,2480,0
1622094401417,668702,,2636,0
1622094401417,668722,,2581,0
1622094401799,668743,,2273,0
1622094401799,668763,,2141,0
1622094401799,668784,,2085,0
1622094401799,668804,,1978,0
1622094401799,668824,,1824,0
1622094401799,668844,,1680,0
1622094401799,668864,,1588,0
1622094401799,668884,,1759,0
1622094401799,668904,,1896,0
1622094401799,668924,,2019,0
1622094401799,668944,,2077,0
1622094401799,668964,,2137,0
1622094401799,668984,,2015,0
1622094401799,669005,,1815,0
1622094401799,669025,,1680,0
1622094401799,669045,,1607,0
1622094401799,669065,,1593,0
1622094401799,669085,,1616,0
1622094401799,669105,,1631,0
1622094401799,669125,,1646,0
1622094401799,669145,,1661,0
1622094401799,669165,,1680,0
1622094401799,669185,,1717,0
1622094401799,669205,,1716,0
1622094401799,669226,,1694,0
1622094402467,669748,,1679,1
1622094402467,669768,,1761,1
1622094402467,669788,,1820,1
1622094402467,669808,,1837,1
1622094402467,669828,,1680,1
1622094402467,669848,,1518,1
1622094402467,669868,,1394,1
1622094402467,669889,,1405,1
1622094402467,669909,,1440,1
1622094402467,669929,,1455,1
1622094402467,669949,,1472,1
1622094402467,669969,,1494,1
1622094402467,669989,,1551,1
1622094402467,670009,,1600,1
1622094402467,670029,,1600,1
1622094402467,670049,,1586,1
1622094402467,670069,,1601,1
1622094402467,670089,,1683,1
1622094402467,670110,,1840,1
1622094402467,670130,,1975,1
1622094402467,670150,,2068,1
1622094402467,670170,,2091,1
1622094402467,670190,,2054,1
1622094402467,670210,,1994,1
1622094402467,670230,,1891,1
1622094403229,671257,,1666,0
1622094403229,671277,,1747,0
1622094403229,671297,,1822,0
1622094403229,671317,,1822,0
1622094403229,671337,,1681,0
1622094403229,671357,,1524,0
1622094403229,671377,,1411,0
1622094403229,671397,,1373,0
1622094403229,671417,,1392,0
1622094403229,671438,,1467,0
1622094403229,671458,,1506,0
1622094403229,671478,,1525,0
1622094403229,671498,,1546,0
1622094403229,671518,,1553,0
1622094403229,671538,,1601,0
1622094403229,671558,,1598,0
1622094403229,671578,,1584,0
1622094403229,671598,,1598,0
1622094403229,671618,,1647,0
1622094403229,671638,,1830,0
1622094403229,671659,,1968,0
1622094403229,671679,,2059,0
1622094403229,671699,,2067,0
1622094403229,671719,,1990,0
1622094403229,671739,,1958,0
1622094404015,672263,,1619,0
1622094404015,672283,,1699,0
1622094404015,672303,,1763,0
1622094404015,672324,,1810,0
1622094404015,672344,,1762,0
1622094404015,672364,,1775,0
1622094404015,672384,,1822,0
1622094404015,672404,,1904,0
1622094404015,672424,,1970,0
1622094404015,672444,,2007,0
1622094404015,672464,,2014,0
1622094404015,672484,,1960,0
1622094404015,672504,,1886,0
1622094404015,672524,,1827,0
1622094404015,672545,,1783,0
1622094404015,672565,,1771,0
1622094404015,672585,,1738,0
1622094404015,672605,,1697,0
1622094404015,672625,,1687,0
1622094404015,672645,,1697,0
1622094404015,672665,,1773,0
1622094404015,672685,,1810,0
1622094404015,672705,,1821,0
1622094404015,672725,,1809,0
1622094404015,672745,,1781,0
1622094404695,673267,,2096,0
1622094404695,673287,,2038,0
1622094404695,673307,,1963,0
1622094404695,673327,,1963,0
1622094404695,673347,,1830,0
1622094404695,673367,,1718,0
1622094404695,673387,,1693,0
1622094404695,673407,,1692,0
1622094404695,673428,,1728,0
1622094404695,673448,,1783,0
1622094404695,673468,,1842,0
1622094404695,673488,,1903,0
1622094404695,673508,,1909,0
1622094404695,673528,,1889,0
1622094404695,673548,,1868,0
1622094404695,673568,,1841,0
1622094404695,673588,,1872,0
1622094404695,673608,,1847,0
1622094404695,673628,,1821,0
1622094404695,673649,,1806,0
1622094404695,673669,,1761,0
1622094404695,673689,,1934,0
1622094404695,673709,,2190,0
1622094404695,673729,,2499,0
1622094404695,673749,,2576,0
1622094405057,673770,,2517,0
1622094405057,673790,,2602,0
1622094405057,673810,,2623,0
1622094405057,673830,,2567,0
1622094405057,673850,,2325,0
1622094405057,673871,,2065,0
1622094405057,673891,,1948,0
1622094405057,673911,,1877,0
1622094405057,673931,,1857,0
1622094405057,673951,,1861,0
1622094405057,673971,,1857,0
1622094405057,673991,,1959,0
1622094405057,674011,,2005,0
1622094405057,674031,,2035,0
1622094405057,674051,,2043,0
1622094405057,674071,,2005,0
1622094405057,674092,,2035,0
1622094405057,674112,,2145,0
1622094405057,674132,,2256,0
1622094405057,674152,,2181,0
1622094405057,674172,,1973,0
1622094405057,674192,,1835,0
1622094405057,674212,,1872,0
1622094405057,674232,,1969,0
1622094405057,674252,,1967,0
1622094405423,674273,,1791,0
1622094405423,674293,,1816,0
1622094405423,674314,,1930,0
1622094405423,674334,,1939,0
1622094405423,674354,,1856,0
1622094405423,674374,,1819,0
1622094405423,674394,,1904,0
1622094405423,674414,,2246,0
1622094405423,674434,,2607,0
1622094405423,674454,,2823,0
1622094405423,674474,,2771,0
1622094405423,674495,,2581,0
1622094405423,674515,,2517,0
1622094405423,674536,,2485,0
1622094405423,674556,,2383,0
1622094405423,674576,,2157,0
1622094405423,674596,,1951,0
1622094405423,674616,,1968,0
1622094405423,674636,,2023,0
1622094405423,674656,,2107,0
1622094405423,674676,,2000,0
1622094405423,674696,,1870,0
1622094405423,674716,,1956,0
1622094405423,674736,,2085,0
1622094405423,674757,,2219,0
1622094407019,675279,,2557,0
1622094407019,675299,,2432,0
1622094407019,675319,,2299,0
1622094407019,675339,,2182,0
1622094407019,675359,,2107,0
1622094407019,675379,,2018,0
1622094407019,675399,,1840,0
1622094407019,675420,,1705,0
1622094407019,675440,,1798,1
1622094407019,675460,,1967,1
1622094407019,675480,,2080,1
1622094407019,675500,,2003,1
1622094407019,675520,,1913,1
1622094407019,675540,,1999,1
1622094407019,675560,,2075,1
1622094407019,675580,,2147,1
1622094407019,675600,,2015,1
1622094407019,675620,,1798,1
1622094407019,675641,,1821,1
1622094407019,675661,,1859,1
1622094407019,675681,,1937,1
1622094407019,675701,,1875,1
1622094407019,675721,,1767,1
1622094407019,675741,,1699,1
1622094407019,675761,,1663,1
1622094409503,677291,,1692,0
1622094409503,677311,,1759,0
1622094409503,677331,,1835,0
1622094409503,677351,,1739,0
1622094409503,677371,,1654,0
1622094409503,677391,,1669,0
1622094409503,677412,,1749,0
1622094409503,677432,,1671,0
1622094409503,677452,,1493,0
1622094409503,677472,,1476,0
1622094409503,677492,,1634,0
1622094409503,677512,,1902,0
1622094409503,677532,,2045,0
1622094409503,677552,,2085,0
1622094409503,677572,,2160,0
1622094409503,677592,,2302,0
1622094409503,677612,,2408,0
1622094409503,677633,,2307,0
1622094409503,677653,,2032,0
1622094409503,677673,,1838,0
1622094409503,677693,,1811,0
1622094409503,677713,,1871,0
1622094409503,677733,,1841,0
1622094409503,677753,,1702,0
1622094409503,677773,,1584,0
1622094410436,678798,,1649,1
1622094410436,678818,,1696,1
1622094410436,678838,,1744,1
1622094410436,678858,,1809,1
1622094410436,678878,,1695,1
1622094410436,678898,,1614,1
1622094410436,678918,,1584,1
1622094410436,678938,,1571,1
1622094410436,678959,,1574,1
1622094410436,678979,,1584,1
1622094410436,678999,,1620,1
1622094410436,679019,,1680,1
1622094410436,679039,,1701,1
1622094410436,679059,,1712,1
1622094410436,679079,,1717,1
1622094410436,679099,,1773,1
1622094410436,679119,,1919,1
1622094410436,679139,,2086,1
1622094410436,679159,,2239,0
1622094410436,679180,,2365,0
1622094410436,679200,,2416,0
1622094410436,679220,,2420,0
1622094410436,679240,,2317,0
1622094410436,679260,,2178,0
1622094410436,679280,,2030,0
1622094410636,679300,,1870,0
1622094410636,679320,,1894,0
1622094410636,679340,,1947,0
1622094410636,679360,,2019,0
1622094410636,679380,,1905,0
1622094410636,679401,,1755,0
1622094410636,679421,,1735,0
1622094410636,679441,,1730,0
1622094410636,679461,,1771,0
1622094410636,679481,,1818,0
1622094410636,679501,,1810,0
1622094410636,679521,,1900,0
1622094410636,679541,,1904,0
1622094410636,679561,,1863,0
1622094410636,679581,,1823,0
1622094410636,679601,,1745,0
1622094410636,679622,,1781,0
1622094410636,679642,,1759,0
1622094410636,679662,,1722,0
1622094410636,679682,,1686,0
1622094410636,679702,,1628,0
1622094410636,679722,,1648,0
1622094410636,679742,,1799,0
1622094410636,679762,,1917,0
1622094410636,679782,,2000,0
1622094410806,679802,,1825,0
1622094410806,679822,,1807,0
1622094410806,679843,,1809,0
1622094410806,679863,,1833,0
1622094410806,679883,,1723,0
1622094410806,679903,,1677,0
1622094410806,679923,,1799,0
1622094410806,679943,,2013,0
1622094410806,679963,,2241,0
1622094410806,679983,,2429,0
1622094410806,680003,,2533,0
1622094410806,680024,,2557,0
1622094410806,680044,,2496,0
1622094410806,680065,,2363,0
1622094410806,680085,,2197,0
1622094410806,680105,,2047,0
1622094410806,680125,,1945,0
1622094410806,680145,,1888,0
1622094410806,680165,,1847,1
1622094410806,680185,,1831,1
1622094410806,680205,,1840,1
1622094410806,680225,,1873,1
1622094410806,680245,,1950,1
1622094410806,680265,,1985,1
1622094410806,680286,,1996,1
1622094410931,680306,,1938,1
1622094410931,680326,,2007,1
1622094410931,680346,,2127,1
1622094410931,680366,,2133,1
1622094410931,680386,,2142,1
1622094410931,680406,,1971,1
1622094410931,680426,,1750,1
1622094410931,680446,,1645,1
1622094410931,680466,,1571,1
1622094410931,680486,,1547,1
1622094410931,680507,,1582,1
1622094410931,680527,,1611,1
1622094410931,680547,,1709,1
1622094410931,680567,,1749,1
1622094410931,680587,,1758,1
1622094410931,680607,,1759,1
1622094410931,680627,,1728,1
1622094410931,680647,,1786,1
1622094410931,680667,,1779,1
1622094410931,680687,,1789,1
1622094410931,680707,,1863,1
1622094410931,680728,,1997,1
1622094410931,680748,,2293,1
1622094410931,680768,,2531,1
1622094410931,680788,,2683,1
1622094410948,680808,,2694,1
1622094410948,680828,,2775,1
1622094410948,680848,,2735,1
1622094410948,680868,,2581,1
1622094410948,680888,,2437,1
1622094410948,680908,,2224,1
1622094410948,680928,,1904,1
1622094410948,680949,,1745,1
1622094410948,680969,,1667,1
1622094410948,680989,,1664,1
1622094410948,681009,,1731,1
1622094410948,681029,,1814,1
1622094410948,681049,,1936,1
1622094410948,681069,,2026,1
1622094410948,681089,,2064,1
1622094410948,681109,,2064,1
1622094410948,681129,,2024,1
1622094410948,681149,,1988,1
1622094410948,681170,,1954,1
1622094410948,681190,,1894,1
1622094410948,681210,,1827,1
1622094410948,681230,,1773,1
1622094410948,681250,,1744,1
1622094410948,681270,,1749,1
1622094410948,681290,,1730,1
1622094410971,681310,,1676,1
1622094410971,681330,,1793,1
1622094410971,681350,,1937,1
1622094410971,681370,,1958,1
1622094410971,681391,,1820,1
1622094410971,681411,,1710,1
1622094410971,681431,,1618,1
1622094410971,681451,,1591,1
1622094410971,681471,,1664,1
1622094410971,681491,,1774,1
1622094410971,681511,,1947,1
1622094410971,681531,,2190,1
1622094410971,681551,,2397,1
1622094410971,681571,,2646,1
1622094410971,681591,,2732,1
1622094410971,681612,,2672,1
1622094410971,681632,,2529,1
1622094410971,681652,,2315,1
1622094410971,681672,,2183,1
1622094410971,681692,,2028,1
1622094410971,681712,,1903,1
1622094410971,681732,,1808,1
1622094410971,681752,,1727,1
1622094410971,681772,,1799,1
1622094410971,681792,,1858,1
1622094410985,681812,,1883,1
1622094410985,681833,,2074,1
1622094410985,681853,,2205,1
1622094410985,681873,,2286,1
1622094410985,681893,,2161,1
1622094410985,681913,,1951,1
1622094410985,681933,,1797,1
1622094410985,681953,,1677,1
1622094410985,681973,,1653,1
1622094410985,681993,,1648,1
1622094410985,682013,,1648,1
1622094410985,682033,,1664,1
1622094410985,682054,,1668,1
1622094410985,682074,,1717,1
1622094410985,682094,,1739,1
1622094410985,682114,,1729,1
1622094410985,682134,,1712,1
1622094410985,682154,,1702,1
1622094410985,682174,,1707,1
1622094410985,682194,,1750,1
1622094410985,682214,,1805,1
1622094410985,682234,,1908,1
1622094410985,682254,,2096,1
1622094410985,682275,,2330,1
1622094410985,682295,,2531,1
1622094411007,682315,,2611,1
1622094411007,682335,,2711,1
1622094411007,682355,,2723,1
1622094411007,682375,,2571,1
1622094411007,682395,,2285,1
1622094411007,682415,,1994,1
1622094411007,682435,,1769,1
1622094411007,682455,,1645,1
1622094411007,682475,,1600,1
1622094411007,682496,,1667,1
1622094411007,682516,,1717,1
1622094411007,682536,,1778,1
1622094411007,682556,,1846,1
1622094411007,682576,,1904,1
1622094411007,682596,,1978,1
1622094411007,682616,,1989,1
1622094411007,682636,,1958,1
1622094411007,682656,,1893,1
1622094411007,682676,,1789,1
1622094411007,682696,,1765,1
1622094411007,682717,,1703,1
1622094411007,682737,,1645,1
1622094411007,682757,,1614,1
1622094411007,682777,,1565,1
1622094411007,682797,,1631,1
1622094411036,682817,,1602,1
1622094411036,682837,,1725,1
1622094411036,682857,,1869,1
1622094411036,682877,,1839,1
1622094411036,682897,,1765,1
1622094411036,682917,,1647,1
1622094411036,682938,,1583,1
1622094411036,682958,,1633,1
1622094411036,682978,,1776,1
1622094411036,682998,,2080,1
1622094411036,683018,,2373,1
1622094411036,683038,,2576,1
1622094411036,683058,,2672,1
1622094411036,683078,,2628,1
1622094411036,683098,,2522,1
1622094411036,683118,,2343,1
1622094411036,683138,,2138,1
1622094411036,683159,,1951,1
1622094411036,683179,,1797,1
1622094411036,683199,,1744,1
1622094411036,683219,,1713,1
1622094411036,683239,,1701,1
1622094411036,683259,,1726,1
1622094411036,683279,,1776,1
1622094411036,683299,,1842,1
1622094411515,683320,,1903,1
1622094411515,683340,,2036,1
1622094411515,683360,,2135,1
1622094411515,683381,,2129,1
1622094411515,683401,,1946,1
1622094411515,683421,,1788,1
1622094411515,683441,,1618,1
1622094411515,683461,,1519,1
1622094411515,683481,,1470,1
1622094411515,683501,,1475,1
1622094411515,683521,,1549,1
1622094411515,683541,,1577,1
1622094411515,683561,,1590,1
1622094411515,683581,,1607,1
1622094411515,683602,,1607,1
1622094411515,683622,,1662,1
1622094411515,683642,,1665,1
1622094411515,683662,,1664,1
1622094411515,683682,,1649,1
1622094411515,683702,,1621,1
1622094411515,683722,,1682,1
1622094411515,683742,,1744,1
1622094411515,683762,,1879,1
1622094411515,683782,,2080,1
1622094411515,683802,,2321,1
1622094412203,683822,,2525,0
1622094412203,683842,,2728,0
1622094412203,683862,,2800,0
1622094412203,683882,,2719,0
1622094412203,683902,,2372,0
1622094412203,683922,,2111,0
1622094412203,683942,,1875,0
1622094412203,683962,,1709,0
1622094412203,683982,,1615,0
1622094412203,684002,,1551,0
1622094412203,684022,,1625,0
1622094412203,684043,,1707,0
1622094412203,684063,,1766,0
1622094412203,684083,,1814,0
1622094412203,684103,,1834,0
1622094412203,684123,,1891,0
1622094412203,684143,,1909,0
1622094412203,684163,,1872,0
1622094412203,684183,,1808,0
1622094412203,684203,,1743,0
1622094412203,684223,,1716,0
1622094412203,684243,,1689,0
1622094412203,684264,,1641,0
1622094412203,684284,,1589,0
1622094412203,684304,,1574,0
1622094412767,684325,,1545,0
1622094412767,684345,,1671,0
1622094412767,684365,,1765,0
1622094412767,684385,,1819,0
1622094412767,684405,,1825,0
1622094412767,684425,,1843,0
1622094412767,684445,,1697,0
1622094412767,684465,,1534,0
1622094412767,684486,,1420,0
1622094412767,684506,,1392,0
1622094412767,684526,,1409,0
1622094412767,684546,,1525,0
1622094412767,684566,,1705,0
1622094412767,684586,,1939,0
1622094412767,684606,,2196,0
1622094412767,684626,,2437,0
1622094412767,684646,,2598,0
1622094412767,684666,,2590,0
1622094412767,684686,,2448,0
1622094412767,684707,,2251,0
1622094412767,684727,,2029,0
1622094412767,684747,,1903,0
1622094412767,684767,,1763,0
1622094412767,684787,,1680,0
1622094412767,684807,,1635,0
1622094413381,684828,,1597,1
1622094413381,684848,,1755,1
1622094413381,684868,,1942,1
1622094413381,684888,,2075,1
1622094413381,684908,,2115,1
1622094413381,684929,,2133,1
1622094413381,684949,,2047,1
1622094413381,684969,,1840,1
1622094413381,684989,,1662,1
1622094413381,685009,,1535,1
1622094413381,685029,,1456,1
1622094413381,685049,,1519,1
1622094413381,685069,,1545,1
1622094413381,685089,,1554,1
1622094413381,685109,,1584,1
1622094413381,685129,,1579,1
1622094413381,685149,,1650,1
1622094413381,685169,,1671,1
1622094413381,685189,,1666,1
1622094413381,685209,,1664,1
1622094413381,685229,,1638,1
1622094413381,685249,,1661,1
1622094413381,685269,,1667,1
1622094413381,685289,,1667,1
1622094413381,685309,,1702,1
1622094413813,685330,,1764,1
1622094413813,685350,,2091,1
1622094413813,685371,,2482,1
1622094413813,685391,,2693,1
1622094413813,685411,,2639,1
1622094413813,685431,,2485,1
1622094413813,685451,,2291,1
1622094413813,685471,,2130,1
1622094413813,685491,,1961,1
1622094413813,685511,,1824,1
1622094413813,685531,,1731,1
1622094413813,685551,,1636,1
1622094413813,685571,,1743,1
1622094413813,685592,,1886,1
1622094413813,685612,,2011,1
1622094413813,685632,,1939,1
1622094413813,685652,,1802,1
1622094413813,685672,,1855,1
1622094413813,685692,,1936,1
1622094413813,685712,,2018,1
1622094413813,685732,,1874,1
1622094413813,685752,,1666,1
1622094413813,685772,,1645,1
1622094413813,685792,,1712,1
1622094413813,685813,,1762,1
1622094414024,685834,,1770,1
1622094414024,685854,,1747,1
1622094414024,685874,,1712,1
1622094414024,685894,,1683,1
1622094414024,685914,,1651,1
1622094414024,685934,,1649,1
1622094414024,685954,,1629,1
1622094414024,685974,,1566,1
1622094414024,685994,,1475,1
1622094414024,686014,,1430,1
1622094414024,686035,,1439,1
1622094414024,686055,,1425,1
1622094414024,686075,,1583,1
1622094414024,686095,,1881,1
1622094414024,686115,,2188,1
1622094414024,686135,,2479,1
1622094414024,686155,,2714,1
1622094414024,686175,,2815,1
1622094414024,686195,,2799,1
1622094414024,686215,,2658,1
1622094414024,686235,,2512,1
1622094414024,686256,,2165,1
1622094414024,686276,,1901,1
1622094414024,686296,,1856,1
1622094414024,686316,,1866,1
1622094414812,686337,,1869,1
1622094414812,686357,,1872,1
1622094414812,686377,,1872,1
1622094414812,686397,,1940,1
1622094414812,686417,,1899,1
1622094414812,686437,,1798,1
1622094414812,686457,,1723,1
1622094414812,686478,,1698,1
1622094414812,686498,,1828,1
1622094414812,686518,,1975,1
1622094414812,686538,,2000,1
1622094414812,686558,,1871,1
1622094414812,686578,,1672,1
1622094414812,686598,,1680,1
1622094414812,686618,,1741,1
1622094414812,686638,,1766,1
1622094414812,686658,,1763,1
1622094414812,686678,,1738,1
1622094414812,686699,,1690,1
1622094414812,686719,,1706,1
1622094414812,686739,,1636,1
1622094414812,686759,,1506,1
1622094414812,686779,,1360,1
1622094414812,686799,,1451,1
1622094414812,686819,,1597,1
1622094415637,686840,,1704,1
1622094415637,686860,,1769,1
1622094415637,686880,,1799,1
1622094415637,686900,,1920,1
1622094415637,686921,,1977,1
1622094415637,686941,,2107,1
1622094415637,686961,,2290,1
1622094415637,686981,,2400,1
1622094415637,687001,,2606,1
1622094415637,687021,,2707,1
1622094415637,687041,,2676,1
1622094415637,687061,,2514,1
1622094415637,687081,,2349,1
1622094415637,687101,,2127,1
1622094415637,687121,,1847,1
1622094415637,687142,,1677,1
1622094415637,687162,,1596,1
1622094415637,687182,,1545,1
1622094415637,687202,,1697,1
1622094415637,687222,,1887,1
1622094415637,687242,,2059,1
1622094415637,687262,,2160,1
1622094415637,687282,,2165,1
1622094415637,687302,,2098,1
1622094415637,687322,,2045,1
1622094415672,687342,,1826,1
1622094415672,687363,,1739,1
1622094415672,687383,,1712,1
1622094415672,687403,,1684,1
1622094415672,687423,,1673,1
1622094415672,687443,,1670,1
1622094415672,687463,,1671,1
1622094415672,687483,,1677,1
1622094415672,687503,,1747,1
1622094415672,687523,,1664,1
1622094415672,687543,,1567,1
1622094415672,687563,,1507,1
1622094415672,687584,,1504,1
1622094415672,687604,,1513,1
1622094415672,687624,,1665,1
1622094415672,687644,,1808,1
1622094415672,687664,,1867,1
1622094415672,687684,,1946,1
1622094415672,687704,,1994,1
1622094415672,687724,,2058,1
1622094415672,687744,,2191,1
1622094415672,687765,,2397,1
1622094415672,687785,,2549,1
1622094415672,687805,,2577,1
1622094415672,687825,,2645,1
1622094416159,687845,,2636,1
1622094416159,687865,,2507,1
1622094416159,687885,,2334,1
1622094416159,687905,,2133,1
1622094416159,687925,,2030,1
1622094416159,687945,,1815,1
1622094416159,687965,,1626,1
1622094416159,687985,,1555,1
1622094416159,688005,,1520,1
1622094416159,688026,,1710,1
1622094416159,688046,,1951,1
1622094416159,688066,,2114,1
1622094416159,688086,,2160,1
1622094416159,688106,,2122,1
1622094416159,688126,,2059,1
1622094416159,688146,,1917,1
1622094416159,688166,,1680,1
1622094416159,688186,,1503,1
1622094416159,688206,,1357,1
1622094416159,688226,,1387,1
1622094416159,688247,,1552,1
1622094416159,688267,,1705,1
1622094416159,688287,,1773,1
1622094416159,688307,,1813,1
1622094416159,688327,,1750,1
1622094416665,688347,,1584,1
1622094416665,688367,,1612,1
1622094416665,688387,,1702,1
1622094416665,688407,,1703,1
1622094416665,688427,,1607,1
1622094416665,688447,,1626,1
1622094416665,688467,,1689,1
1622094416665,688487,,1791,1
1622094416665,688507,,1947,1
1622094416665,688527,,2251,1
1622094416665,688547,,2394,1
1622094416665,688567,,2501,1
1622094416665,688587,,2547,1
1622094416665,688607,,2503,1
1622094416665,688627,,2371,1
1622094416665,688647,,2338,1
1622094416665,688667,,2281,1
1622094416665,688688,,2192,1
1622094416665,688708,,2075,1
1622094416665,688728,,1988,1
1622094416665,688748,,1792,1
1622094416665,688768,,1622,1
1622094416665,688788,,1534,1
1622094416665,688808,,1554,1
1622094416665,688828,,1569,1
1622094417080,688849,,1792,1
1622094417080,688869,,1967,1
1622094417080,688889,,2074,1
1622094417080,688910,,2061,1
1622094417080,688930,,1987,1
1622094417080,688950,,1878,1
1622094417080,688970,,1781,1
1622094417080,688990,,1696,1
1622094417080,689010,,1627,1
1622094417080,689030,,1584,1
1622094417080,689050,,1562,1
1622094417080,689070,,1562,1
1622094417080,689090,,1591,1
1622094417080,689110,,1483,1
1622094417080,689131,,1344,1
1622094417080,689151,,1410,1
1622094417080,689171,,1552,1
1622094417080,689191,,1665,1
1622094417080,689211,,1726,1
1622094417080,689231,,1746,1
1622094417080,689251,,1675,1
1622094417080,689271,,1514,1
1622094417080,689291,,1409,1
1622094417080,689311,,1390,1
1622094417080,689331,,1435,1
1622094417864,689351,,1712,1
1622094417864,689371,,2112,1
1622094417864,689391,,2549,1
1622094417864,689411,,2815,1
1622094417864,689431,,2864,1
1622094417864,689451,,2781,1
1622094417864,689471,,2448,1
1622094417864,689491,,2077,1
1622094417864,689511,,1797,1
1622094417864,689531,,1580,1
1622094417864,689551,,1506,1
1622094417864,689572,,1647,1
1622094417864,689592,,1813,1
1622094417864,689612,,1859,1
1622094417864,689632,,1777,1
1622094417864,689652,,1703,1
1622094417864,689672,,1807,1
1622094417864,689692,,1924,1
1622094417864,689712,,1972,1
1622094417864,689732,,1965,1
1622094417864,689752,,1915,1
1622094417864,689772,,1857,1
1622094417864,689793,,1783,1
1622094417864,689813,,1707,1
1622094417864,689833,,1650,1
1622094418148,689853,,1616,1
1622094418148,689873,,1603,1
1622094418148,689893,,1579,1
1622094418148,689913,,1629,1
1622094418148,689933,,1578,1
1622094418148,689953,,1476,1
1622094418148,689973,,1442,1
1622094418148,689993,,1435,1
1622094418148,690014,,1459,1
1622094418148,690034,,1504,1
1622094418148,690054,,1492,1
1622094418148,690074,,1637,1
1622094418148,690094,,1770,1
1622094418148,690114,,1872,1
1622094418148,690134,,1997,1
1622094418148,690154,,2126,1
1622094418148,690174,,2298,1
1622094418148,690194,,2467,1
1622094418148,690214,,2559,1
1622094418148,690235,,2579,1
1622094418148,690255,,2413,1
1622094418148,690275,,2154,1
1622094418148,690295,,1874,1
1622094418148,690315,,1647,1
1622094418148,690335,,1513,1
1622094418553,690355,,1424,1
1622094418553,690375,,1558,1
1622094418553,690395,,1759,1
1622094418553,690415,,1855,1
1622094418553,690435,,1827,1
1622094418553,690456,,1731,1
1622094418553,690476,,1787,1
1622094418553,690496,,1936,1
1622094418553,690516,,2014,1
1622094418553,690536,,2021,1
1622094418553,690556,,1968,1
1622094418553,690576,,1887,1
1622094418553,690596,,1796,1
1622094418553,690616,,1691,1
1622094418553,690636,,1615,1
1622094418553,690656,,1578,1
1622094418553,690677,,1557,1
1622094418553,690697,,1552,1
1622094418553,690717,,1566,1
1622094418553,690737,,1578,1
1622094418553,690757,,1593,1
1622094418553,690777,,1606,1
1622094418553,690797,,1614,1
1622094418553,690817,,1628,1
1622094418553,690837,,1639,1
1622094419051,690857,,1648,1
1622094419051,690877,,1680,1
1622094419051,690898,,1763,1
1622094419051,690918,,1936,1
1622094419051,690938,,2018,1
1622094419051,690958,,2131,1
1622094419051,690978,,2182,1
1622094419051,690998,,2355,1
1622094419051,691018,,2448,1
1622094419051,691038,,2417,1
1622094419051,691058,,2302,1
1622094419051,691078,,2133,1
1622094419051,691098,,1968,1
1622094419051,691119,,1824,1
1622094419051,691139,,1732,1
1622094419051,691159,,1692,1
1622094419051,691179,,1680,1
1622094419051,691199,,1696,1
1622094419051,691219,,1728,1
1622094419051,691239,,1776,1
1622094419051,691259,,1831,1
1622094419051,691279,,1861,1
1622094419051,691299,,1866,1
1622094419051,691319,,1841,1
1622094419051,691340,,1794,1
1622094419754,691361,,1744,1
1622094419754,691381,,1690,1
1622094419754,691401,,1648,1
1622094419754,691421,,1617,1
1622094419754,691441,,1602,1
1622094419754,691461,,1602,1
1622094419754,691481,,1617,1
1622094419754,691501,,1669,1
1622094419754,691521,,1658,1
1622094419754,691541,,1529,1
1622094419754,691562,,1442,1
1622094419754,691582,,1390,1
1622094419754,691602,,1456,1
1622094419754,691622,,1648,1
1622094419754,691642,,1781,1
1622094419754,691662,,1846,1
1622094419754,691682,,1897,1
1622094419754,691702,,1980,1
1622094419754,691722,,2188,1
1622094419754,691742,,2255,1
1622094419754,691762,,2288,1
1622094419754,691783,,2285,1
1622094419754,691803,,2252,1
1622094419754,691823,,2310,1
1622094419754,691843,,2307,1
1622094420976,691863,,2246,1
1622094420976,691883,,2128,1
1622094420976,691903,,2043,1
1622094420976,691923,,1899,1
1622094420976,691943,,1691,1
1622094420976,691963,,1581,1
1622094420976,691983,,1549,1
1622094420976,692004,,1560,1
1622094420976,692024,,1776,1
1622094420976,692044,,1969,1
1622094420976,692064,,2121,1
1622094420976,692084,,2162,1
1622094420976,692104,,2170,1
1622094420976,692124,,2018,1
1622094420976,692144,,1797,1
1622094420976,692164,,1614,1
1622094420976,692184,,1514,1
1622094420976,692204,,1426,1
1622094420976,692225,,1558,0
1622094420976,692245,,1712,0
1622094420976,692265,,1850,0
1622094420976,692285,,1916,0
1622094420976,692305,,1936,0
1622094420976,692325,,1953,0
1622094420976,692345,,1761,0
1622094424633,692365,,1547,0
1622094424633,692385,,1531,0
1622094424633,692405,,1578,0
1622094424633,692425,,1610,0
1622094424633,692446,,1606,0
1622094424633,692466,,1616,0
1622094424633,692486,,1686,0
1622094424633,692506,,1813,0
1622094424633,692526,,2019,0
1622094424633,692546,,2215,0
1622094424633,692566,,2383,0
1622094424633,692586,,2486,0
1622094424633,692606,,2483,0
1622094424633,692626,,2419,0
1622094424633,692646,,2176,0
1622094424633,692667,,1887,0
1622094424633,692687,,1716,0
1622094424633,692707,,1601,0
1622094424633,692727,,1607,0
1622094424633,692747,,1746,0
1622094424633,692767,,1938,0
1622094424633,692787,,1974,0
1622094424633,692807,,1883,0
1622094424633,692827,,1791,0
1622094424633,692847,,1883,0
1622094427610,694877,,2254,0
1622094427610,694897,,2192,0
1622094427610,694917,,2125,0
1622094427610,694937,,2078,0
1622094427610,694957,,1850,0
1622094427610,694977,,1690,0
1622094427610,694997,,1601,0
1622094427610,695017,,1577,0
1622094427610,695037,,1613,0
1622094427610,695057,,1679,0
1622094427610,695077,,1775,0
1622094427610,695098,,1859,1
1622094427610,695118,,1883,1
1622094427610,695138,,1871,1
1622094427610,695158,,1840,1
1622094427610,695178,,1795,1
1622094427610,695198,,1755,1
1622094427610,695218,,1699,1
1622094427610,695238,,1648,1
1622094427610,695258,,1604,1
1622094427610,695278,,1582,1
1622094427610,695298,,1598,1
1622094427610,695319,,1586,1
1622094427610,695339,,1584,1
1622094427610,695359,,1584,1
1622094428786,696384,,1599,0
1622094428786,696404,,1723,0
1622094428786,696425,,1889,0
1622094428786,696445,,1948,0
1622094428786,696465,,1849,0
1622094428786,696485,,1730,0
1622094428786,696505,,1645,1
1622094428786,696525,,1621,1
1622094428786,696545,,1570,1
1622094428786,696565,,1534,1
1622094428786,696585,,1506,1
1622094428786,696605,,1467,1
1622094428786,696625,,1521,1
1622094428786,696646,,1510,1
1622094428786,696666,,1487,1
1622094428786,696686,,1473,1
1622094428786,696706,,1444,1
1622094428786,696726,,1506,1
1622094428786,696746,,1525,1
1622094428786,696766,,1582,1
1622094428786,696786,,1685,1
1622094428786,696806,,1823,1
1622094428786,696827,,2112,1
1622094428786,696847,,2439,0
1622094428786,696868,,2619,0
1622094429001,696889,,2624,0
1622094429001,696909,,2510,0
1622094429001,696929,,2305,0
1622094429001,696949,,2118,0
1622094429001,696969,,1907,0
1622094429001,696989,,1646,0
1622094429001,697009,,1403,0
1622094429001,697029,,1387,0
1622094429001,697049,,1391,0
1622094429001,697069,,1427,0
1622094429001,697090,,1509,0
1622094429001,697110,,1570,0
1622094429001,697130,,1719,0
1622094429001,697150,,1785,0
1622094429001,697170,,1792,0
1622094429001,697190,,1778,0
1622094429001,697210,,1739,0
1622094429001,697230,,1739,0
1622094429001,697250,,1705,0
1622094429001,697270,,1645,0
1622094429001,697290,,1584,0
1622094429001,697311,,1521,0
1622094429001,697331,,1520,0
1622094429001,697351,,1523,0
1622094429001,697371,,1500,0
1622094429185,697392,,1455,0
1622094429185,697412,,1611,0
1622094429185,697432,,1872,0
1622094429185,697452,,2075,0
1622094429185,697472,,2157,0
1622094429185,697492,,2224,0
1622094429185,697512,,2256,0
1622094429185,697533,,2262,0
1622094429185,697553,,2217,0
1622094429185,697573,,2096,0
1622094429185,697593,,1967,0
1622094429185,697613,,1841,0
1622094429185,697633,,1744,0
1622094429185,697653,,1707,0
1622094429185,697673,,1648,0
1622094429185,697693,,1607,0
1622094429185,697713,,1600,0
1622094429185,697733,,1619,0
1622094429185,697754,,1712,0
1622094429185,697774,,1753,0
1622094429185,697794,,1777,0
1622094429185,697814,,1787,0
1622094429185,697834,,1751,0
1622094429185,697854,,1795,1
1622094429185,697874,,1759,1
1622094429469,697894,,1657,1
1622094429469,697914,,1717,1
1622094429469,697934,,1811,1
1622094429469,697954,,1811,1
1622094429469,697975,,1651,1
1622094429469,697995,,1494,1
1622094429469,698015,,1404,1
1622094429469,698035,,1334,1
1622094429469,698055,,1441,1
1622094429469,698075,,1550,1
1622094429469,698095,,1699,1
1622094429469,698115,,1886,1
1622094429469,698135,,2123,1
1622094429469,698155,,2361,0
1622094429469,698175,,2493,0
1622094429469,698196,,2485,0
1622094429469,698216,,2373,0
1622094429469,698236,,2193,0
1622094429469,698256,,2077,0
1622094429469,698276,,1931,0
1622094429469,698296,,1821,0
1622094429469,698316,,1731,0
1622094429469,698336,,1661,0
1622094429469,698356,,1655,0
1622094429469,698376,,1663,0
1622094430177,698397,,1633,0
1622094430177,698418,,1776,0
1622094430177,698438,,1924,0
1622094430177,698458,,2003,0
1622094430177,698478,,2065,0
1622094430177,698498,,1916,0
1622094430177,698518,,1717,0
1622094430177,698538,,1587,0
1622094430177,698558,,1520,0
1622094430177,698578,,1517,0
1622094430177,698598,,1503,0
1622094430177,698618,,1505,0
1622094430177,698639,,1521,0
1622094430177,698659,,1505,0
1622094430177,698679,,1650,0
1622094430177,698699,,1785,0
1622094430177,698719,,1873,0
1622094430177,698739,,1749,0
1622094430177,698759,,1568,0
1622094430177,698779,,1624,0
1622094430177,698799,,1799,0
1622094430177,698819,,2115,0
1622094430177,698839,,2236,0
1622094430177,698860,,2257,0
1622094430177,698880,,2390,0
1622094431380,699907,,1808,0
1622094431380,699927,,1933,0
1622094431380,699947,,2032,0
1622094431380,699968,,1994,0
1622094431380,699988,,1833,0
1622094431380,700008,,1711,0
1622094431380,700028,,1602,0
1622094431380,700048,,1551,0
1622094431380,700068,,1525,0
1622094431380,700088,,1516,0
1622094431380,700108,,1599,0
1622094431380,700128,,1622,0
1622094431380,700148,,1635,0
1622094431380,700168,,1648,0
1622094431380,700189,,1614,0
1622094431380,700209,,1723,0
1622094431380,700229,,1842,0
1622094431380,700249,,1978,0
1622094431380,700269,,1886,0
1622094431380,700289,,1697,0
1622094431380,700309,,1666,0
1622094431380,700329,,1807,0
1622094431380,700349,,2062,0
1622094431380,700369,,2238,0
1622094431380,700389,,2272,0
1622094431979,700409,,2384,0
1622094431979,700429,,2514,0
1622094431979,700449,,2544,0
1622094431979,700469,,2432,0
1622094431979,700489,,2135,0
1622094431979,700509,,1888,0
1622094431979,700529,,1840,0
1622094431979,700549,,1862,0
1622094431979,700569,,1841,0
1622094431979,700589,,1691,0
1622094431979,700609,,1594,0
1622094431979,700630,,1712,0
1622094431979,700650,,1881,0
1622094431979,700670,,1967,0
1622094431979,700690,,1874,0
1622094431979,700710,,1782,0
1622094431979,700730,,1867,0
1622094431979,700750,,1917,0
1622094431979,700770,,1973,0
1622094431979,700790,,1825,0
1622094431979,700810,,1628,0
1622094431979,700830,,1626,0
1622094431979,700851,,1682,0
1622094431979,700871,,1734,0
1622094431979,700891,,1753,0
1622094432674,700912,,1750,0
1622094432674,700932,,1731,0
1622094432674,700952,,1731,0
1622094432674,700972,,1665,0
1622094432674,700992,,1518,0
1622094432674,701012,,1373,0
1622094432674,701032,,1458,0
1622094432674,701052,,1599,0
1622094432674,701073,,1765,0
1622094432674,701093,,1779,0
1622094432674,701113,,1782,0
1622094432674,701133,,2011,0
1622094432674,701153,,2351,0
1622094432674,701173,,2651,0
1622094432674,701193,,2654,0
1622094432674,701213,,2433,0
1622094432674,701233,,2338,0
1622094432674,701253,,2261,0
1622094432674,701273,,2226,0
1622094432674,701294,,2006,0
1622094432674,701314,,1723,0
1622094432674,701334,,1700,0
1622094432674,701354,,1762,0
1622094432674,701374,,1872,0
1622094432674,701394,,1862,0
1622094433421,701414,,1742,0
1622094433421,701434,,1811,0
1622094433421,701454,,1967,0
1622094433421,701474,,2003,0
1622094433421,701494,,1902,0
1622094433421,701515,,1744,0
1622094433421,701535,,1723,0
1622094433421,701555,,1665,0
1622094433421,701575,,1621,0
1622094433421,701595,,1609,0
1622094433421,701615,,1589,0
1622094433421,701635,,1617,0
1622094433421,701655,,1758,0
1622094433421,701675,,1875,0
1622094433421,701695,,1881,0
1622094433421,701715,,1715,0
1622094433421,701736,,1584,0
1622094433421,701756,,1655,0
1622094433421,701776,,1771,0
1622094433421,701796,,1810,0
1622094433421,701816,,1678,0
1622094433421,701836,,1600,0
1622094433421,701856,,1783,0
1622094433421,701876,,2046,0
1622094433421,701896,,2371,0
1622094433940,701916,,2414,0
1622094433940,701936,,2555,0
1622094433940,701957,,2675,0
1622094433940,701977,,2614,0
1622094433940,701997,,2369,0
1622094433940,702017,,2117,0
1622094433940,702037,,1856,0
1622094433940,702057,,1841,0
1622094433940,702077,,1890,0
1622094433940,702097,,1986,0
1622094433940,702117,,1885,0
1622094433940,702137,,1715,0
1622094433940,702157,,1761,1
1622094433940,702178,,1872,1
1622094433940,702198,,2011,1
1622094433940,702218,,2073,1
1622094433940,702238,,2107,1
1622094433940,702258,,1995,1
1622094433940,702278,,1807,1
1622094433940,702298,,1648,1
1622094433940,702318,,1569,1
1622094433940,702338,,1517,1
1622094433940,702358,,1584,1
1622094433940,702378,,1600,1
1622094433940,702399,,1604,1
1622094434445,702419,,1559,1
1622094434445,702439,,1663,1
1622094434445,702459,,1767,1
1622094434445,702479,,1815,1
1622094434445,702499,,1857,1
1622094434445,702519,,1715,1
1622094434445,702539,,1476,1
1622094434445,702559,,1427,1
1622094434445,702579,,1524,1
1622094434445,702599,,1725,1
1622094434445,702620,,1873,1
1622094434445,702640,,1943,1
1622094434445,702660,,2118,1
1622094434445,702680,,2407,1
1622094434445,702700,,2639,1
1622094434445,702720,,2626,1
1622094434445,702740,,2389,1
1622094434445,702760,,2139,1
1622094434445,702780,,2039,1
1622094434445,702800,,1996,1
1622094434445,702820,,1904,1
1622094434445,702841,,1682,1
1622094434445,702861,,1515,1
1622094434445,702881,,1584,1
1622094434445,702901,,1725,1
1622094435381,702921,,1783,1
1622094435381,702941,,1855,1
1622094435381,702961,,1930,1
1622094435381,702981,,1951,1
1622094435381,703001,,1936,1
1622094435381,703021,,1894,1
1622094435381,703041,,1840,1
1622094435381,703062,,1839,1
1622094435381,703082,,1705,1
1622094435381,703102,,1546,1
1622094435381,703122,,1439,1
1622094435381,703142,,1403,1
1622094435381,703162,,1373,1
1622094435381,703182,,1534,1
1622094435381,703202,,1703,1
1622094435381,703222,,1840,1
1622094435381,703242,,1743,1
1622094435381,703262,,1577,1
1622094435381,703283,,1614,1
1622094435381,703303,,1777,1
1622094435381,703323,,2034,1
1622094435381,703343,,2171,1
1622094435381,703363,,2191,1
1622094435381,703383,,2361,1
1622094435381,703403,,2511,1
1622094435536,703424,,2550,1
1622094435536,703444,,2477,1
1622094435536,703464,,2333,1
1622094435536,703484,,2157,1
1622094435536,703505,,2037,1
1622094435536,703525,,1871,1
1622094435536,703545,,1635,1
1622094435536,703565,,1454,1
1622094435536,703585,,1471,1
1622094435536,703605,,1521,1
1622094435536,703625,,1616,1
1622094435536,703645,,1715,1
1622094435536,703665,,1771,1
1622094435536,703685,,1898,1
1622094435536,703705,,1926,1
1622094435536,703726,,1905,1
1622094435536,703746,,1860,1
1622094435536,703766,,1776,1
1622094435536,703786,,1747,1
1622094435536,703806,,1829,1
1622094435536,703826,,1935,1
1622094435536,703846,,1895,1
1622094435536,703866,,1713,1
1622094435536,703886,,1552,1
1622094435536,703906,,1587,1
1622094435597,703927,,1682,1
1622094435597,703948,,1810,1
1622094435597,703968,,2000,1
1622094435597,703988,,2114,1
1622094435597,704008,,2317,1
1622094435597,704028,,2522,1
1622094435597,704048,,2610,1
1622094435597,704068,,2458,1
1622094435597,704088,,2210,1
1622094435597,704108,,2143,1
1622094435597,704128,,2100,1
1622094435597,704148,,2079,1
1622094435597,704169,,1882,1
1622094435597,704189,,1659,1
1622094435597,704209,,1670,1
1622094435597,704229,,1744,1
1622094435597,704249,,1844,1
1622094435597,704269,,1783,1
1622094435597,704289,,1671,1
1622094435597,704309,,1804,1
1622094435597,704329,,1935,1
1622094435597,704349,,2061,1
1622094435597,704369,,1957,1
1622094435597,704390,,1794,1
1622094435597,704410,,1687,1
1622094435619,704431,,1570,1
1622094435619,704451,,1641,1
1622094435619,704471,,1775,1
1622094435619,704491,,1776,1
1622094435619,704511,,1700,1
1622094435619,704531,,1579,1
1622094435619,704551,,1481,1
1622094435619,704571,,1456,1
1622094435619,704591,,1479,1
1622094435619,704612,,1678,1
1622094435619,704632,,1898,1
1622094435619,704652,,2145,1
1622094435619,704672,,2388,1
1622094435619,704692,,2514,1
1622094435619,704712,,2657,1
1622094435619,704732,,2598,1
1622094435619,704752,,2455,1
1622094435619,704772,,2263,1
1622094435619,704792,,2035,1
1622094435619,704812,,1971,1
1622094435619,704833,,1859,1
1622094435619,704853,,1775,1
1622094435619,704873,,1717,1
1622094435619,704893,,1666,1
1622094435619,704913,,1719,1
1622094435636,704934,,1918,1
1622094435636,704954,,2058,1
1622094435636,704974,,2179,1
1622094435636,704994,,2096,1
1622094435636,705014,,1936,1
1622094435636,705034,,1895,1
1622094435636,705055,,1904,1
1622094435636,705075,,1846,1
1622094435636,705095,,1667,1
1622094435636,705115,,1499,1
1622094435636,705135,,1600,1
1622094435636,705155,,1680,1
1622094435636,705175,,1786,1
1622094435636,705195,,1705,1
1622094435636,705215,,1585,1
1622094435636,705235,,1523,1
1622094435636,705255,,1493,1
1622094435636,705276,,1550,1
1622094435636,705296,,1698,1
1622094435636,705316,,1939,1
1622094435636,705336,,2225,1
1622094435636,705356,,2469,1
1622094435636,705376,,2624,1
1622094435636,705396,,2659,1
1622094435636,705416,,2578,1
1622094435653,705436,,2400,1
1622094435653,705456,,2318,1
1622094435653,705476,,2258,1
1622094435653,705497,,2138,1
1622094435653,705517,,1894,1
1622094435653,705537,,1753,1
1622094435653,705557,,1648,1
1622094435653,705577,,1615,1
1622094435653,705597,,1649,1
1622094435653,705617,,1702,1
1622094435653,705637,,1850,1
1622094435653,705657,,1921,1
1622094435653,705677,,1953,1
1622094435653,705697,,1941,1
1622094435653,705718,,1883,1
1622094435653,705738,,1875,1
1622094435653,705758,,1811,1
1622094435653,705778,,1753,1
1622094435653,705798,,1680,1
1622094435653,705818,,1602,1
1622094435653,705838,,1628,1
1622094435653,705858,,1737,1
1622094435653,705878,,1857,1
1622094435653,705898,,1779,1
1622094435653,705918,,1604,1
1622094435670,705938,,1545,1
1622094435670,705958,,1639,1
1622094435670,705978,,1742,1
1622094435670,705998,,1875,1
1622094435670,706018,,2039,1
1622094435670,706038,,2315,1
1622094435670,706058,,2413,1
1622094435670,706078,,2446,1
1622094435670,706098,,2435,1
1622094435670,706118,,2361,1
1622094435670,706138,,2237,1
1622094435670,706159,,2227,1
1622094435670,706179,,2229,1
1622094435670,706199,,2135,1
1622094435670,706219,,1929,1
1622094435670,706239,,1692,1
1622094435670,706259,,1709,1
1622094435670,706279,,1782,1
1622094435670,706299,,1892,1
1622094435670,706319,,1829,1
1622094435670,706340,,1723,1
1622094435670,706360,,1818,1
1622094435670,706381,,1933,1
1622094435670,706401,,2014,1
1622094435670,706421,,1879,1
1622094435704,706441,,1687,1
1622094435704,706461,,1694,1
1622094435704,706481,,1729,1
1622094435704,706501,,1775,1
1622094435704,706521,,1645,1
1622094435704,706541,,1463,1
1622094435704,706561,,1513,1
1622094435704,706581,,1614,1
1622094435704,706602,,1741,1
1622094435704,706622,,1651,1
1622094435704,706642,,1482,1
1622094435704,706662,,1505,1
1622094435704,706682,,1629,1
1622094435704,706702,,1746,1
1622094435704,706722,,1935,1
1622094435704,706742,,1975,1
1622094435704,706762,,2145,1
1622094435704,706782,,2391,1
1622094435704,706802,,2630,1
1622094435704,706823,,2585,1
1622094435704,706843,,2302,1
1622094435704,706863,,2207,1
1622094435704,706883,,2137,1
1622094435704,706903,,2096,1
1622094435704,706923,,1940,1
1622094435721,706943,,1683,1
1622094435721,706963,,1648,1
1622094435721,706983,,1728,1
1622094435721,707003,,1770,1
1622094435721,707023,,1712,1
1622094435721,707044,,1654,1
1622094435721,707064,,1745,1
1622094435721,707084,,1791,1
1622094435721,707104,,1805,1
1622094435721,707124,,1795,1
1622094435721,707144,,1741,1
1622094435721,707164,,1759,1
1622094435721,707184,,1723,1
1622094435721,707204,,1677,1
1622094435721,707224,,1638,1
1622094435721,707244,,1600,1
1622094435721,707265,,1573,1
1622094435721,707285,,1693,1
1622094435721,707305,,1813,1
1622094435721,707325,,1831,1
1622094435721,707345,,1703,1
1622094435721,707365,,1531,1
1622094435721,707385,,1600,1
1622094435721,707405,,1683,1
1622094435721,707425,,1813,1
1622094435739,707446,,1773,1
1622094435739,707466,,1920,1
1622094435739,707487,,2205,1
1622094435739,707507,,2403,1
1622094435739,707527,,2442,1
1622094435739,707547,,2412,1
1622094435739,707567,,2343,1
1622094435739,707587,,2249,1
1622094435739,707607,,2106,1
1622094435739,707627,,1965,1
1622094435739,707647,,1853,1
1622094435739,707667,,1771,1
1622094435739,707687,,1756,1
1622094435739,707708,,1725,1
1622094435739,707728,,1722,1
1622094435739,707748,,1757,1
1622094435739,707768,,1754,1
1622094435739,707788,,1919,1
1622094435739,707808,,2077,1
1622094435739,707828,,2179,1
1622094435739,707848,,2128,1
1622094435739,707868,,1865,1
1622094435739,707888,,1761,1
1622094435739,707908,,1738,1
1622094435739,707929,,1746,1
1622094436138,707949,,1654,1
1622094436138,707969,,1621,1
1622094436138,707989,,1617,1
1622094436138,708009,,1631,1
1622094436138,708029,,1647,1
1622094436138,708049,,1654,1
1622094436138,708069,,1646,1
1622094436138,708089,,1619,1
1622094436138,708109,,1614,1
1622094436138,708129,,1625,1
1622094436138,708149,,1723,1
1622094436138,708169,,1702,1
1622094436138,708189,,1802,1
1622094436138,708209,,2144,1
1622094436138,708229,,2450,1
1622094436138,708249,,2659,1
1622094436138,708269,,2709,1
1622094436138,708289,,2617,1
1622094436138,708309,,2447,1
1622094436138,708329,,2251,1
1622094436138,708349,,2102,1
1622094436138,708370,,1757,1
1622094436138,708390,,1543,1
1622094436138,708410,,1568,1
1622094436138,708430,,1664,1
1622094436641,708451,,1778,1
1622094436641,708471,,1870,1
1622094436641,708491,,1935,1
1622094436641,708511,,1967,1
1622094436641,708531,,1967,1
1622094436641,708551,,1973,1
1622094436641,708571,,1806,1
1622094436641,708592,,1575,1
1622094436641,708612,,1601,1
1622094436641,708632,,1667,1
1622094436641,708652,,1709,1
1622094436641,708672,,1718,1
1622094436641,708692,,1717,1
1622094436641,708712,,1712,1
1622094436641,708732,,1697,1
1622094436641,708752,,1694,1
1622094436641,708772,,1702,1
1622094436641,708792,,1722,1
1622094436641,708813,,1728,1
1622094436641,708833,,1750,1
1622094436641,708853,,1730,1
1622094436641,708873,,1606,1
1622094436641,708893,,1476,1
1622094436641,708913,,1646,1
1622094436641,708933,,1989,1
1622094437145,708954,,2387,1
1622094437145,708974,,2672,1
1622094437145,708994,,2822,1
1622094437145,709014,,2819,1
1622094437145,709035,,2695,1
1622094437145,709055,,2475,1
1622094437145,709075,,2227,1
1622094437145,709095,,2014,1
1622094437145,709115,,1874,1
1622094437145,709135,,1815,1
1622094437145,709155,,1744,1
1622094437145,709175,,1620,1
1622094437145,709195,,1525,1
1622094437145,709215,,1631,1
1622094437145,709235,,1718,1
1622094437145,709256,,1812,1
1622094437145,709276,,1886,1
1622094437145,709296,,1887,1
1622094437145,709316,,1905,1
1622094437145,709336,,2001,1
1622094437145,709356,,2033,1
1622094437145,709376,,1999,1
1622094437145,709396,,1921,1
1622094437145,709416,,1831,1
1622094437145,709437,,1735,1
1622094437649,709458,,1666,1
1622094437649,709479,,1618,1
1622094437649,709499,,1602,1
1622094437649,709519,,1600,1
1622094437649,709539,,1631,1
1622094437649,709559,,1650,1
1622094437649,709579,,1657,1
1622094437649,709599,,1664,1
1622094437649,709619,,1682,1
1622094437649,709639,,1737,1
1622094437649,709659,,1900,1
1622094437649,709679,,2000,1
1622094437649,709700,,2174,1
1622094437649,709720,,2341,1
1622094437649,709740,,2657,1
1622094437649,709760,,2841,1
1622094437649,709780,,2830,1
1622094437649,709800,,2663,1
1622094437649,709820,,2434,1
1622094437649,709840,,2197,1
1622094437649,709860,,2007,1
1622094437649,709880,,1922,1
1622094437649,709900,,1765,1
1622094437649,709921,,1534,1
1622094437649,709941,,1579,1
1622094438164,709962,,1740,1
1622094438164,709982,,1875,1
1622094438164,710002,,1984,1
1622094438164,710022,,2032,1
1622094438164,710042,,2042,1
1622094438164,710062,,2014,1
1622094438164,710082,,1994,1
1622094438164,710102,,1845,1
1622094438164,710122,,1585,1
1622094438164,710143,,1526,1
1622094438164,710163,,1567,1
1622094438164,710183,,1593,1
1622094438164,710203,,1629,1
1622094438164,710223,,1635,1
1622094438164,710243,,1631,1
1622094438164,710263,,1630,1
1622094438164,710283,,1622,1
1622094438164,710303,,1624,1
1622094438164,710323,,1618,1
1622094438164,710343,,1667,1
1622094438164,710364,,1602,1
1622094438164,710384,,1503,1
1622094438164,710404,,1523,1
1622094438164,710424,,1673,1
1622094438164,710444,,1974,1
1622094438667,710464,,2482,1
1622094438667,710484,,2819,1
1622094438667,710504,,2978,1
1622094438667,710524,,2922,1
1622094438667,710545,,2709,1
1622094438667,710565,,2427,1
1622094438667,710586,,2158,1
1622094438667,710606,,1932,1
1622094438667,710626,,1781,1
1622094438667,710646,,1691,1
1622094438667,710666,,1659,1
1622094438667,710686,,1659,1
1622094438667,710706,,1712,1
1622094438667,710726,,1772,1
1622094438667,710746,,1844,1
1622094438667,710766,,1914,1
1622094438667,710786,,1935,1
1622094438667,710807,,1921,1
1622094438667,710827,,1869,1
1622094438667,710847,,1841,1
1622094438667,710867,,1703,1
1622094438667,710887,,1502,1
1622094438667,710907,,1363,1
1622094438667,710927,,1294,1
1622094438667,710947,,1251,1
1622094439258,710968,,1434,0
1622094439258,710988,,1633,0
1622094439258,711008,,1744,0
1622094439258,711029,,1776,0
1622094439258,711049,,1746,0
1622094439258,711069,,1690,0
1622094439258,711089,,1667,0
1622094439258,711109,,1665,0
1622094439258,711129,,1589,0
1622094439258,711149,,1569,0
1622094439258,711169,,1847,0
1622094439258,711189,,2218,0
1622094439258,711209,,2531,0
1622094439258,711229,,2688,0
1622094439258,711250,,2727,0
1622094439258,711270,,2582,0
1622094439258,711290,,2234,0
1622094439258,711310,,1911,0
1622094439258,711330,,1687,0
1622094439258,711350,,1501,0
1622094439258,711370,,1520,0
1622094439258,711390,,1670,0
1622094439258,711410,,1780,0
1622094439258,711430,,1861,0
1622094439258,711450,,1917,0
1622094439689,711470,,1905,0
1622094439689,711490,,1904,0
1622094439689,711510,,1897,0
1622094439689,711530,,1885,0
1622094439689,711550,,1651,0
1622094439689,711570,,1517,0
1622094439689,711590,,1551,0
1622094439689,711610,,1598,0
1622094439689,711630,,1618,0
1622094439689,711650,,1642,0
1622094439689,711670,,1572,0
1622094439689,711691,,1412,0
1622094439689,711711,,1307,0
1622094439689,711731,,1273,0
1622094439689,711751,,1275,0
1622094439689,711771,,1316,0
1622094439689,711791,,1531,0
1622094439689,711811,,1785,0
1622094439689,711831,,2035,0
1622094439689,711851,,2261,0
1622094439689,711871,,2489,0
1622094439689,711891,,2463,0
1622094439689,711912,,2321,0
1622094439689,711932,,2162,0
1622094439689,711952,,1983,0
1622094440212,711973,,1783,0
1622094440212,711993,,1775,0
1622094440212,712013,,1787,0
1622094440212,712033,,1763,0
1622094440212,712053,,1744,0
1622094440212,712073,,1707,0
1622094440212,712093,,1673,0
1622094440212,712113,,1663,0
1622094440212,712134,,1675,0
1622094440212,712154,,1741,0
1622094440212,712174,,1638,0
1622094440212,712194,,1558,0
1622094440212,712214,,1467,0
1622094440212,712234,,1424,0
1622094440212,712254,,1413,1
1622094440212,712274,,1359,1
1622094440212,712294,,1481,1
1622094440212,712314,,1643,1
1622094440212,712334,,1712,1
1622094440212,712355,,1723,1
1622094440212,712375,,1703,1
1622094440212,712395,,1615,1
1622094440212,712415,,1402,1
1622094440212,712435,,1266,1
1622094440212,712455,,1253,1
1622094440669,712475,,1333,1
1622094440669,712495,,1694,1
1622094440669,712515,,2063,1
1622094440669,712535,,2352,1
1622094440669,712555,,2481,0
1622094440669,712576,,2466,0
1622094440669,712596,,2331,0
1622094440669,712616,,2149,0
1622094440669,712636,,1984,0
1622094440669,712656,,1862,0
1622094440669,712676,,1557,0
1622094440669,712696,,1447,0
1622094440669,712716,,1357,0
1622094440669,712736,,1349,0
1622094440669,712756,,1403,0
1622094440669,712776,,1453,0
1622094440669,712797,,1571,0
1622094440669,712817,,1797,0
1622094440669,712837,,1949,0
1622094440669,712857,,2005,0
1622094440669,712877,,1970,0
1622094440669,712897,,1888,0
1622094440669,712917,,1765,0
1622094440669,712937,,1657,0
1622094440669,712957,,1613,0
1622094441172,712978,,1381,0
1622094441172,712998,,1359,0
1622094441172,713019,,1414,0
1622094441172,713039,,1488,0
1622094441172,713059,,1392,0
1622094441172,713079,,1303,0
1622094441172,713099,,1237,0
1622094441172,713119,,1392,0
1622094441172,713139,,1606,0
1622094441172,713159,,1807,0
1622094441172,713179,,2037,0
1622094441172,713199,,2117,0
1622094441172,713219,,2160,0
1622094441172,713240,,2145,0
1622094441172,713260,,2100,0
1622094441172,713280,,2017,0
1622094441172,713300,,1874,0
1622094441172,713320,,1895,0
1622094441172,713340,,1939,0
1622094441172,713360,,1963,0
1622094441172,713380,,1926,0
1622094441172,713400,,1863,0
1622094441172,713420,,1793,0
1622094441172,713440,,1739,0
1622094441172,713461,,1779,0
1622094441673,713481,,1687,0
1622094441673,713501,,1691,0
1622094441673,713521,,1745,0
1622094441673,713541,,1757,0
1622094441673,713561,,1645,1
1622094441673,713581,,1525,1
1622094441673,713601,,1451,1
1622094441673,713621,,1502,1
1622094441673,713641,,1510,1
1622094441673,713661,,1523,1
1622094441673,713682,,1552,1
1622094441673,713702,,1509,1
1622094441673,713722,,1575,1
1622094441673,713742,,1712,1
1622094441673,713762,,1798,1
1622094441673,713782,,1823,1
1622094441673,713802,,1805,1
1622094441673,713822,,1685,1
1622094441673,713842,,1531,1
1622094441673,713862,,1424,1
1622094441673,713882,,1392,1
1622094441673,713903,,1430,1
1622094441673,713923,,1617,1
1622094441673,713943,,1939,1
1622094441673,713963,,2278,0
1622094442174,713984,,2491,0
1622094442174,714004,,2553,0
1622094442174,714024,,2497,0
1622094442174,714044,,2334,0
1622094442174,714064,,2155,0
1622094442174,714084,,1989,0
1622094442174,714104,,1870,0
1622094442174,714125,,1786,0
1622094442174,714145,,1730,0
1622094442174,714165,,1712,0
1622094442174,714185,,1731,0
1622094442174,714205,,1628,0
1622094442174,714225,,1533,0
1622094442174,714245,,1681,0
1622094442174,714265,,1835,0
1622094442174,714285,,1943,0
1622094442174,714305,,1985,0
1622094442174,714325,,1968,0
1622094442174,714346,,1949,0
1622094442174,714366,,1835,0
1622094442174,714386,,1627,0
1622094442174,714406,,1488,0
1622094442174,714426,,1378,0
1622094442174,714446,,1478,0
1622094442174,714466,,1642,0
1622094442679,714487,,1740,0
1622094442679,714507,,1787,0
1622094442679,714527,,1793,0
1622094442679,714547,,1777,0
1622094442679,714568,,1773,0
1622094442679,714588,,1754,0
1622094442679,714608,,1727,0
1622094442679,714628,,1698,0
1622094442679,714648,,1710,0
1622094442679,714668,,1629,0
1622094442679,714688,,1487,0
1622094442679,714708,,1449,0
1622094442679,714728,,1485,0
1622094442679,714748,,1762,0
1622094442679,714768,,2159,0
1622094442679,714789,,2495,0
1622094442679,714809,,2672,0
1622094442679,714829,,2691,0
1622094442679,714849,,2594,0
1622094442679,714869,,2426,0
1622094442679,714889,,2231,0
1622094442679,714909,,2087,0
1622094442679,714929,,1959,0
1622094442679,714949,,1911,0
1622094442679,714969,,1778,0
1622094443971,714989,,1599,0
1622094443971,715010,,1658,0
1622094443971,715030,,1788,0
1622094443971,715050,,1924,0
1622094443971,715070,,1878,0
1622094443971,715090,,1809,0
1622094443971,715110,,1758,0
1622094443971,715130,,1729,0
1622094443971,715150,,1712,0
1622094443971,715170,,1813,0
1622094443971,715190,,1929,0
1622094443971,715210,,1968,0
1622094443971,715231,,1929,0
1622094443971,715251,,1871,0
1622094443971,715271,,1856,0
1622094443971,715291,,1732,0
1622094443971,715311,,1569,0
1622094443971,715331,,1457,0
1622094443971,715351,,1397,0
1622094443971,715371,,1571,0
1622094443971,715391,,1743,0
1622094443971,715411,,1872,0
1622094443971,715431,,1792,0
1622094443971,715452,,1633,0
1622094443971,715472,,1673,0
1622094446262,715492,,1769,0
1622094446262,715512,,1842,0
1622094446262,715532,,1957,0
1622094446262,715552,,2087,0
1622094446262,715572,,2166,0
1622094446262,715592,,2258,0
1622094446262,715612,,2363,0
1622094446262,715632,,2432,0
1622094446262,715652,,2395,0
1622094446262,715673,,2455,0
1622094446262,715693,,2475,0
1622094446262,715713,,2427,0
1622094446262,715733,,2310,0
1622094446262,715753,,2210,0
1622094446262,715773,,2070,0
1622094446262,715793,,1858,0
1622094446262,715813,,1713,0
1622094446262,715833,,1677,0
1622094446262,715853,,1654,0
1622094446262,715873,,1807,0
1622094446262,715894,,2000,0
1622094446262,715914,,2155,0
1622094446262,715934,,2195,0
1622094446262,715954,,2192,0
1622094446262,715974,,2090,0
1622094447086,715994,,1827,0
1622094447086,716014,,1778,0
1622094447086,716034,,1785,0
1622094447086,716054,,1795,0
1622094447086,716074,,1807,0
1622094447086,716094,,1794,0
1622094447086,716114,,1785,0
1622094447086,716134,,1773,0
1622094447086,716154,,1763,0
1622094447086,716174,,1801,0
1622094447086,716194,,1680,0
1622094447086,716214,,1560,0
1622094447086,716234,,1495,0
1622094447086,716254,,1501,0
1622094447086,716274,,1548,0
1622094447086,716294,,1838,0
1622094447086,716314,,2160,0
1622094447086,716335,,2476,0
1622094447086,716355,,2603,0
1622094447086,716375,,2609,0
1622094447086,716395,,2722,0
1622094447086,716415,,2762,0
1622094447086,716435,,2689,0
1622094447086,716455,,2532,0
1622094447086,716475,,2375,0
1622094447612,718002,,1911,0
1622094447612,718022,,1922,0
1622094447612,718042,,1982,0
1622094447612,718062,,1989,0
1622094447612,718082,,1855,0
1622094447612,718103,,1702,1
1622094447612,718123,,1708,1
1622094447612,718143,,1732,1
1622094447612,718163,,1770,1
1622094447612,718183,,1795,1
1622094447612,718203,,1783,1
1622094447612,718223,,1839,1
1622094447612,718243,,1819,1
1622094447612,718263,,1757,1
1622094447612,718283,,1694,1
1622094447612,718303,,1630,1
1622094447612,718324,,1629,1
1622094447612,718344,,1613,1
1622094447612,718364,,1588,1
1622094447612,718384,,1571,1
1622094447612,718404,,1561,1
1622094447612,718424,,1573,1
1622094447612,718444,,1591,1
1622094447612,718464,,1573,1
1622094447612,718484,,1549,1
1622094447942,719009,,1669,1
1622094447942,719029,,1745,1
1622094447942,719049,,1853,1
1622094447942,719069,,1826,1
1622094447942,719089,,1661,1
1622094447942,719109,,1500,1
1622094447942,719129,,1386,1
1622094447942,719149,,1418,1
1622094447942,719169,,1424,1
1622094447942,719189,,1439,1
1622094447942,719210,,1469,1
1622094447942,719230,,1449,1
1622094447942,719250,,1530,1
1622094447942,719270,,1583,1
1622094447942,719290,,1634,1
1622094447942,719310,,1758,1
1622094447942,719330,,1926,1
1622094447942,719350,,2129,1
1622094447942,719370,,2427,0
1622094447942,719390,,2583,0
1622094447942,719410,,2611,0
1622094447942,719431,,2349,0
1622094447942,719451,,2022,0
1622094447942,719471,,1891,0
1622094447942,719491,,1815,0
1622094448234,719512,,1757,0
1622094448234,719532,,1706,0
1622094448234,719552,,1717,0
1622094448234,719572,,1648,0
1622094448234,719592,,1530,0
1622094448234,719612,,1481,0
1622094448234,719632,,1487,0
1622094448234,719653,,1514,0
1622094448234,719673,,1711,0
1622094448234,719693,,1844,0
1622094448234,719713,,1918,0
1622094448234,719733,,1895,0
1622094448234,719753,,1879,0
1622094448234,719773,,1711,0
1622094448234,719793,,1527,0
1622094448234,719813,,1363,0
1622094448234,719833,,1301,0
1622094448234,719853,,1263,0
1622094448234,719874,,1428,0
1622094448234,719894,,1602,0
1622094448234,719914,,1712,0
1622094448234,719934,,1744,0
1622094448234,719954,,1766,0
1622094448234,719974,,1695,0
1622094448234,719994,,1533,0
1622094448245,720014,,1450,0
1622094448245,720034,,1679,0
1622094448245,720054,,2026,0
1622094448245,720074,,2288,0
1622094448245,720095,,2323,0
1622094448245,720115,,2272,0
1622094448245,720135,,2161,0
1622094448245,720155,,1983,0
1622094448245,720175,,1950,0
1622094448245,720195,,1969,0
1622094448245,720215,,1968,0
1622094448245,720235,,1936,0
1622094448245,720255,,1893,0
1622094448245,720275,,1830,0
1622094448245,720295,,1785,0
1622094448245,720316,,1749,0
1622094448245,720336,,1749,0
1622094448245,720356,,1759,0
1622094448245,720376,,1774,1
1622094448245,720396,,1778,1
1622094448245,720416,,1774,1
1622094448245,720436,,1773,1
1622094448245,720456,,1586,1
1622094448245,720476,,1457,1
1622094448245,720496,,1534,1
1622094450508,720517,,1615,1
1622094450508,720538,,1673,1
1622094450508,720558,,1685,1
1622094450508,720578,,1679,1
1622094450508,720598,,1667,1
1622094450508,720618,,1663,1
1622094450508,720638,,1509,1
1622094450508,720658,,1385,1
1622094450508,720678,,1328,1
1622094450508,720698,,1454,1
1622094450508,720718,,1641,1
1622094450508,720738,,1753,1
1622094450508,720759,,1744,1
1622094450508,720779,,1779,1
1622094450508,720799,,2035,1
1622094450508,720819,,2337,0
1622094450508,720839,,2576,0
1622094450508,720859,,2511,0
1622094450508,720879,,2315,0
1622094450508,720899,,2247,0
1622094450508,720919,,2187,0
1622094450508,720939,,2150,0
1622094450508,720959,,1962,0
1622094450508,720980,,1748,0
1622094450508,721000,,1653,0
1622094452993,721020,,1557,0
1622094452993,721040,,1679,0
1622094452993,721060,,1841,0
1622094452993,721080,,1884,0
1622094452993,721100,,1925,0
1622094452993,721120,,1963,0
1622094452993,721140,,2027,0
1622094452993,721160,,1902,0
1622094452993,721180,,1680,0
1622094452993,721201,,1654,0
1622094452993,721221,,1710,0
1622094452993,721241,,1809,0
1622094452993,721261,,1728,0
1622094452993,721281,,1562,0
1622094452993,721301,,1535,0
1622094452993,721321,,1618,0
1622094452993,721341,,1691,0
1622094452993,721361,,1733,0
1622094452993,721381,,1746,0
1622094452993,721401,,1779,0
1622094452993,721422,,1627,0
1622094452993,721442,,1484,0
1622094452993,721462,,1411,0
1622094452993,721482,,1381,0
1622094452993,721502,,1488,0
1622094455917,721523,,1776,0
1622094455917,721543,,2103,0
1622094455917,721563,,2427,0
1622094455917,721583,,2581,0
1622094455917,721603,,2617,0
1622094455917,721623,,2669,0
1622094455917,721644,,2674,0
1622094455917,721664,,2511,0
1622094455917,721684,,2207,0
1622094455917,721704,,1921,0
1622094455917,721724,,1869,0
1622094455917,721744,,1904,0
1622094455917,721764,,1889,0
1622094455917,721784,,1744,0
1622094455917,721804,,1649,0
1622094455917,721824,,1753,1
1622094455917,721844,,1918,1
1622094455917,721865,,2014,1
1622094455917,721885,,1937,1
1622094455917,721905,,1823,1
1622094455917,721925,,1890,1
1622094455917,721945,,1966,1
1622094455917,721965,,2011,1
1622094455917,721985,,1839,1
1622094455917,722005,,1627,1
1622094459833,726045,,1568,0
1622094459833,726066,,1645,0
1622094459833,726086,,1701,0
1622094459833,726106,,1759,0
1622094459833,726126,,1625,0
1622094459833,726146,,1465,0
1622094459833,726166,,1380,0
1622094459833,726186,,1360,0
1622094459833,726206,,1409,0
1622094459833,726226,,1521,0
1622094459833,726246,,1688,0
1622094459833,726266,,1881,0
1622094459833,726287,,2090,0
1622094459833,726307,,2229,0
1622094459833,726327,,2286,0
1622094459833,726347,,2207,0
1622094459833,726367,,2065,0
1622094459833,726387,,1911,0
1622094459833,726407,,1779,0
1622094459833,726427,,1710,0
1622094459833,726447,,1627,0
1622094459833,726467,,1581,0
1622094459833,726487,,1554,0
1622094459833,726508,,1553,0
1622094459833,726528,,1619,0
1622094461499,728053,,1806,1
1622094461499,728073,,1942,1
1622094461499,728093,,2031,1
1622094461499,728113,,2075,1
1622094461499,728133,,1872,1
1622094461499,728153,,1745,1
1622094461499,728173,,1629,1
1622094461499,728193,,1552,1
1622094461499,728213,,1513,1
1622094461499,728233,,1522,1
1622094461499,728253,,1583,1
1622094461499,728274,,1650,1
1622094461499,728294,,1680,0
1622094461499,728314,,1690,0
1622094461499,728334,,1698,0
1622094461499,728354,,1716,0
1622094461499,728374,,1744,0
1622094461499,728394,,1719,0
1622094461499,728414,,1696,0
1622094461499,728434,,1698,0
1622094461499,728454,,1746,0
1622094461499,728474,,1905,0
1622094461499,728495,,2096,0
1622094461499,728515,,2289,0
1622094461499,728535,,2416,0
1622094462132,728556,,2425,0
1622094462132,728576,,2512,0
1622094462132,728596,,2553,0
1622094462132,728616,,2417,0
1622094462132,728636,,2135,0
1622094462132,728656,,1892,0
1622094462132,728676,,1767,0
1622094462132,728696,,1679,0
1622094462132,728717,,1631,0
1622094462132,728737,,1634,0
1622094462132,728757,,1659,0
1622094462132,728777,,1791,0
1622094462132,728797,,1851,0
1622094462132,728817,,1895,0
1622094462132,728837,,1911,0
1622094462132,728857,,1872,0
1622094462132,728877,,1925,0
1622094462132,728897,,2062,0
1622094462132,728917,,2096,0
1622094462132,728937,,2099,0
1622094462132,728957,,1845,0
1622094462132,728977,,1715,0
1622094462132,728997,,1597,0
1622094462132,729017,,1543,0
1622094462132,729037,,1552,0
1622094462420,729058,,1571,0
1622094462420,729078,,1740,0
1622094462420,729098,,1933,0
1622094462420,729118,,1965,0
1622094462420,729138,,1856,0
1622094462420,729159,,1717,0
1622094462420,729179,,1670,0
1622094462420,729199,,1645,0
1622094462420,729219,,1648,0
1622094462420,729239,,1711,0
1622094462420,729259,,1853,0
1622094462420,729279,,2077,0
1622094462420,729299,,2323,0
1622094462420,729319,,2485,0
1622094462420,729339,,2574,0
1622094462420,729359,,2544,0
1622094462420,729380,,2385,0
1622094462420,729400,,2357,0
1622094462420,729420,,2310,0
1622094462420,729440,,2243,0
1622094462420,729460,,1990,0
1622094462420,729480,,1744,0
1622094462420,729500,,1755,0
1622094462420,729520,,1815,1
1622094462420,729540,,1930,1
1622094462454,729561,,1815,1
1622094462454,729581,,1922,1
1622094462454,729602,,2020,1
1622094462454,729622,,2122,1
1622094462454,729642,,2032,1
1622094462454,729662,,1883,1
1622094462454,729682,,1714,1
1622094462454,729702,,1749,1
1622094462454,729722,,1839,1
1622094462454,729742,,1951,1
1622094462454,729762,,1874,1
1622094462454,729782,,1684,1
1622094462454,729802,,1683,1
1622094462454,729823,,1776,1
1622094462454,729843,,1893,1
1622094462454,729863,,1815,1
1622094462454,729883,,1635,1
1622094462454,729903,,1649,1
1622094462454,729923,,1757,1
1622094462454,729943,,1919,1
1622094462454,729963,,1936,1
1622094462454,729983,,1909,1
1622094462454,730003,,2078,1
1622094462454,730023,,2386,0
1622094462454,730044,,2702,0
1622094462552,730566,,1584,0
1622094462552,730586,,1730,0
1622094462552,730606,,1904,0
1622094462552,730626,,1920,0
1622094462552,730646,,1808,0
1622094462552,730666,,1741,0
1622094462552,730686,,1791,0
1622094462552,730707,,1999,0
1622094462552,730727,,2268,0
1622094462552,730747,,2507,0
1622094462552,730767,,2688,0
1622094462552,730787,,2722,0
1622094462552,730807,,2640,0
1622094462552,730827,,2518,0
1622094462552,730847,,2347,0
1622094462552,730867,,2165,0
1622094462552,730887,,2011,0
1622094462552,730907,,1895,0
1622094462552,730928,,1881,0
1622094462552,730948,,1858,0
1622094462552,730968,,1857,0
1622094462552,730988,,1881,0
1622094462552,731008,,1885,0
1622094462552,731028,,2002,1
1622094462552,731048,,2144,1
1622094462617,731069,,2239,1
1622094462617,731089,,2236,1
1622094462617,731109,,2170,1
1622094462617,731129,,2098,1
1622094462617,731150,,1966,1
1622094462617,731170,,1894,1
1622094462617,731190,,1695,1
1622094462617,731210,,1522,1
1622094462617,731230,,1506,1
1622094462617,731250,,1511,1
1622094462617,731270,,1533,1
1622094462617,731290,,1577,1
1622094462617,731310,,1600,1
1622094462617,731330,,1664,1
1622094462617,731350,,1820,1
1622094462617,731371,,1999,1
1622094462617,731391,,2058,1
1622094462617,731411,,2013,1
1622094462617,731431,,2086,1
1622094462617,731451,,2384,1
1622094462617,731471,,2713,0
1622094462617,731491,,2885,0
1622094462617,731511,,2793,0
1622094462617,731531,,2559,0
1622094462617,731551,,2474,0
1622094462729,733082,,2670,0
1622094462729,733102,,2668,0
1622094462729,733122,,2607,0
1622094462729,733143,,2353,0
1622094462729,733163,,1967,0
1622094462729,733183,,1837,0
1622094462729,733203,,1809,0
1622094462729,733223,,1846,0
1622094462729,733243,,1746,0
1622094462729,733263,,1574,0
1622094462729,733283,,1618,0
1622094462729,733303,,1754,0
1622094462729,733323,,1974,0
1622094462729,733343,,1968,0
1622094462729,733364,,1833,0
1622094462729,733384,,1805,0
1622094462729,733404,,1856,0
1622094462729,733424,,1935,0
1622094462729,733444,,1825,0
1622094462729,733464,,1603,0
1622094462729,733484,,1517,0
1622094462729,733504,,1571,0
1622094462729,733524,,1681,0
1622094462729,733544,,1662,0
1622094462729,733564,,1520,0
1622094462752,733584,,1442,0
1622094462752,733604,,1531,0
1622094462752,733624,,1633,0
1622094462752,733644,,1702,0
1622094462752,733664,,1584,0
1622094462752,733684,,1457,0
1622094462752,733704,,1526,0
1622094462752,733724,,1606,0
1622094462752,733744,,1665,0
1622094462752,733764,,1543,0
1622094462752,733784,,1453,0
1622094462752,733805,,1509,0
1622094462752,733825,,1662,0
1622094462752,733845,,1919,0
1622094462752,733865,,2202,0
1622094462752,733885,,2430,0
1622094462752,733905,,2566,0
1622094462752,733925,,2522,0
1622094462752,733945,,2373,0
1622094462752,733965,,2169,0
1622094462752,733985,,1995,0
1622094462752,734005,,1867,0
1622094462752,734026,,1709,0
1622094462752,734046,,1613,1
1622094462752,734066,,1555,1
1622094462754,734087,,1520,1
1622094462754,734107,,1683,1
1622094462754,734127,,1895,1
1622094462754,734147,,1969,1
1622094462754,734167,,1888,1
1622094462754,734187,,1792,1
1622094462754,734207,,1753,1
1622094462754,734227,,1693,1
1622094462754,734248,,1621,1
1622094462754,734268,,1584,1
1622094462754,734288,,1498,1
1622094462754,734308,,1588,1
1622094462754,734328,,1711,1
1622094462754,734348,,1830,1
1622094462754,734368,,1744,1
1622094462754,734388,,1584,1
1622094462754,734408,,1531,1
1622094462754,734428,,1473,1
1622094462754,734448,,1442,1
1622094462754,734469,,1453,1
1622094462754,734489,,1437,1
1622094462754,734509,,1521,1
1622094462754,734529,,1680,1
1622094462754,734549,,1830,1
1622094462754,734569,,1781,1
1622094462825,734589,,1631,1
1622094462825,734609,,1727,1
1622094462825,734629,,1971,1
1622094462825,734649,,2222,1
1622094462825,734669,,2310,1
1622094462825,734690,,2320,1
1622094462825,734710,,2336,1
1622094462825,734730,,2401,1
1622094462825,734750,,2358,1
1622094462825,734770,,2229,1
1622094462825,734790,,2075,1
1622094462825,734810,,1945,1
1622094462825,734830,,1758,1
1622094462825,734850,,1513,1
1622094462825,734870,,1405,1
1622094462825,734890,,1387,1
1622094462825,734910,,1411,1
1622094462825,734930,,1665,1
1622094462825,734950,,1858,1
1622094462825,734970,,2033,1
1622094462825,734990,,1960,1
1622094462825,735010,,1826,1
1622094462825,735030,,1751,1
1622094462825,735050,,1645,1
1622094462825,735070,,1575,1
1622094463333,735090,,1488,1
1622094463333,735110,,1602,1
1622094463333,735130,,1694,1
1622094463333,735150,,1778,1
1622094463333,735170,,1793,1
1622094463333,735190,,1767,1
1622094463333,735210,,1753,1
1622094463333,735230,,1635,1
1622094463333,735250,,1477,1
1622094463333,735270,,1393,1
1622094463333,735290,,1375,1
1622094463333,735310,,1346,1
1622094463333,735330,,1488,1
1622094463333,735351,,1681,1
1622094463333,735371,,1810,1
1622094463333,735391,,1943,1
1622094463333,735411,,2103,1
1622094463333,735431,,2302,1
1622094463333,735451,,2496,1
1622094463333,735471,,2633,1
1622094463333,735491,,2731,1
1622094463333,735511,,2571,1
1622094463333,735531,,2339,1
1622094463333,735551,,2096,1
1622094463333,735572,,1843,1
1622094464255,735593,,1673,1
1622094464255,735613,,1736,1
1622094464255,735633,,1842,1
1622094464255,735653,,1904,1
1622094464255,735673,,1930,1
1622094464255,735693,,1987,1
1622094464255,735713,,1941,1
1622094464255,735733,,1853,1
1622094464255,735753,,1769,1
1622094464255,735773,,1730,1
1622094464255,735794,,1718,1
1622094464255,735814,,1722,1
1622094464255,735834,,1719,1
1622094464255,735854,,1872,1
1622094464255,735874,,1946,1
1622094464255,735894,,1950,1
1622094464255,735914,,1909,1
1622094464255,735934,,1886,1
1622094464255,735954,,1708,1
1622094464255,735974,,1521,1
1622094464255,735994,,1418,1
1622094464255,736015,,1411,1
1622094464255,736035,,1420,1
1622094464255,736055,,1617,1
1622094464255,736075,,1785,1
1622094464289,736095,,1881,1
1622094464289,736115,,1904,1
1622094464289,736135,,1907,1
1622094464289,736155,,1808,1
1622094464289,736175,,1661,1
1622094464289,736195,,1611,1
1622094464289,736215,,1734,1
1622094464289,736236,,1939,1
1622094464289,736256,,2362,1
1622094464289,736276,,2795,1
1622094464289,736296,,3029,1
1622094464289,736316,,3090,1
1622094464289,736336,,2833,1
1622094464289,736356,,2485,1
1622094464289,736376,,2134,1
1622094464289,736396,,1877,1
1622094464289,736416,,1712,1
1622094464289,736436,,1595,1
1622094464289,736457,,1672,1
1622094464289,736477,,1840,1
1622094464289,736497,,2005,1
1622094464289,736517,,2123,1
1622094464289,736537,,2016,1
1622094464289,736557,,2005,1
1622094464289,736577,,1948,1
1622094464787,736597,,1861,1
1622094464787,736617,,1943,1
1622094464787,736637,,2026,1
1622094464787,736657,,2022,1
1622094464787,736677,,1997,1
1622094464787,736697,,1909,1
1622094464787,736717,,1863,1
1622094464787,736737,,1744,1
1622094464787,736757,,1610,1
1622094464787,736777,,1491,1
1622094464787,736797,,1444,1
1622094464787,736817,,1453,1
1622094464787,736837,,1491,1
1622094464787,736857,,1598,1
1622094464787,736877,,1673,1
1622094464787,736898,,1698,1
1622094464787,736918,,1705,1
1622094464787,736938,,1702,1
1622094464787,736958,,1674,1
1622094464787,736978,,1840,1
1622094464787,736998,,2004,1
1622094464787,737018,,2222,1
1622094464787,737038,,2480,1
1622094464787,737058,,2737,1
1622094464787,737078,,2909,1
1622094465291,737099,,2989,1
1622094465291,737120,,2915,1
1622094465291,737140,,2800,1
1622094465291,737160,,2493,1
1622094465291,737180,,2160,1
1622094465291,737200,,1856,1
1622094465291,737220,,1680,1
1622094465291,737240,,1602,1
1622094465291,737260,,1558,1
1622094465291,737280,,1697,1
1622094465291,737300,,1907,1
1622094465291,737320,,2065,1
1622094465291,737341,,2173,1
1622094465291,737361,,2211,1
1622094465291,737381,,2199,1
1622094465291,737401,,2154,1
1622094465291,737421,,2074,1
1622094465291,737441,,1983,1
1622094465291,737461,,1894,1
1622094465291,737481,,1808,1
1622094465291,737501,,1731,1
1622094465291,737522,,1716,1
1622094465291,737542,,1561,1
1622094465291,737563,,1370,1
1622094465291,737583,,1407,1
1622094465796,737604,,1583,1
1622094465796,737624,,1719,1
1622094465796,737644,,1814,1
1622094465796,737664,,1853,1
1622094465796,737684,,1845,1
1622094465796,737704,,1857,1
1622094465796,737724,,1741,1
1622094465796,737744,,1584,1
1622094465796,737764,,1445,1
1622094465796,737785,,1463,1
1622094465796,737805,,1670,1
1622094465796,737825,,1949,1
1622094465796,737845,,2256,1
1622094465796,737865,,2576,1
1622094465796,737885,,2841,1
1622094465796,737905,,2987,1
1622094465796,737925,,3045,1
1622094465796,737945,,2798,1
1622094465796,737965,,2458,1
1622094465796,737985,,2143,1
1622094465796,738005,,2026,1
1622094465796,738025,,1969,1
1622094465796,738045,,1931,1
1622094465796,738065,,1907,1
1622094465796,738085,,1872,1
1622094466311,738106,,1858,1
1622094466311,738126,,1872,1
1622094466311,738146,,1930,1
1622094466311,738166,,1968,1
1622094466311,738186,,1827,1
1622094466311,738206,,1858,1
1622094466311,738227,,1915,1
1622094466311,738247,,1936,1
1622094466311,738267,,1917,1
1622094466311,738287,,1865,1
1622094466311,738307,,1803,1
1622094466311,738327,,1728,1
1622094466311,738347,,1661,1
1622094466311,738367,,1616,1
1622094466311,738387,,1589,1
1622094466311,738407,,1571,1
1622094466311,738427,,1574,1
1622094466311,738448,,1574,1
1622094466311,738468,,1595,1
1622094466311,738488,,1616,1
1622094466311,738508,,1659,1
1622094466311,738528,,1565,1
1622094466311,738548,,1456,1
1622094466311,738568,,1421,1
1622094466311,738588,,1369,1
1622094466800,738609,,1520,1
1622094466800,738629,,1820,1
1622094466800,738649,,2135,1
1622094466800,738670,,2480,1
1622094466800,738690,,2759,1
1622094466800,738710,,2957,1
1622094466800,738730,,3013,1
1622094466800,738750,,2894,1
1622094466800,738770,,2543,1
1622094466800,738790,,2165,1
1622094466800,738810,,1936,1
1622094466800,738830,,1899,1
1622094466800,738850,,1892,1
1622094466800,738870,,1887,1
1622094466800,738891,,1890,1
1622094466800,738911,,1905,1
1622094466800,738931,,1940,1
1622094466800,738951,,1846,1
1622094466800,738971,,1774,1
1622094466800,738991,,1712,1
1622094466800,739011,,1735,1
1622094466800,739031,,1871,1
1622094466800,739051,,1966,1
1622094466800,739071,,2000,1
1622094466800,739091,,1967,1
1622094467545,739111,,1890,1
1622094467545,739131,,1784,1
1622094467545,739151,,1730,1
1622094467545,739171,,1638,1
1622094467545,739191,,1471,1
1622094467545,739211,,1386,1
1622094467545,739231,,1394,1
1622094467545,739251,,1429,1
1622094467545,739271,,1474,1
1622094467545,739291,,1531,1
1622094467545,739311,,1533,1
1622094467545,739332,,1682,1
1622094467545,739352,,1818,1
1622094467545,739372,,1854,1
1622094467545,739392,,1892,1
1622094467545,739412,,1887,1
1622094467545,739432,,1931,1
1622094467545,739452,,2064,1
1622094467545,739472,,2297,1
1622094467545,739492,,2512,1
1622094467545,739512,,2609,1
1622094467545,739532,,2703,1
1622094467545,739553,,2719,1
1622094467545,739573,,2606,1
1622094467545,739593,,2451,1
1622094467953,739613,,2083,1
1622094467953,739633,,1891,1
1622094467953,739653,,1787,1
1622094467953,739673,,1744,1
1622094467953,739693,,1723,1
1622094467953,739713,,1769,1
1622094467953,739733,,1771,1
1622094467953,739753,,1712,1
1622094467953,739774,,1699,1
1622094467953,739794,,1719,1
1622094467953,739814,,1697,1
1622094467953,739834,,1777,1
1622094467953,739854,,1915,1
1622094467953,739874,,1987,1
1622094467953,739894,,1965,1
1622094467953,739914,,1897,1
1622094467953,739934,,1808,1
1622094467953,739954,,1591,1
1622094467953,739974,,1405,1
1622094467953,739995,,1322,1
1622094467953,740015,,1296,1
1622094467953,740035,,1376,1
1622094467953,740055,,1573,1
1622094467953,740075,,1744,1
1622094467953,740095,,1837,1
1622094468307,740116,,1859,1
1622094468307,740136,,1831,1
1622094468307,740156,,1766,1
1622094468307,740176,,1711,1
1622094468307,740196,,1686,1
1622094468307,740217,,1759,1
1622094468307,740237,,1986,1
1622094468307,740257,,2141,1
1622094468307,740277,,2274,1
1622094468307,740297,,2399,1
1622094468307,740317,,2496,1
1622094468307,740337,,2509,1
1622094468307,740357,,2630,1
1622094468307,740377,,2657,1
1622094468307,740397,,2559,1
1622094468307,740417,,2401,1
1622094468307,740437,,2269,1
1622094468307,740457,,2017,1
1622094468307,740477,,1777,1
1622094468307,740497,,1653,1
1622094468307,740517,,1633,1
1622094468307,740537,,1619,1
1622094468307,740557,,1795,1
1622094468307,740577,,2019,1
1622094468307,740597,,2150,1
1622094468888,740617,,2165,1
1622094468888,740637,,2116,1
1622094468888,740658,,1994,1
1622094468888,740678,,1865,1
1622094468888,740698,,1773,1
1622094468888,740718,,1649,1
1622094468888,740738,,1421,1
1622094468888,740758,,1337,1
1622094468888,740778,,1275,1
1622094468888,740798,,1260,1
1622094468888,740818,,1271,1
1622094468888,740838,,1262,1
1622094468888,740858,,1359,1
1622094468888,740879,,1550,1
1622094468888,740899,,1670,1
1622094468888,740919,,1713,1
1622094468888,740939,,1690,1
1622094468888,740959,,1587,1
1622094468888,740979,,1454,1
1622094468888,740999,,1408,1
1622094468888,741019,,1507,1
1622094468888,741039,,1692,1
1622094468888,741059,,2005,1
1622094468888,741079,,2373,1
1622094468888,741100,,2662,1
1622094469498,741121,,2723,1
1622094469498,741141,,2612,1
1622094469498,741161,,2387,1
1622094469498,741181,,2128,1
1622094469498,741201,,1885,1
1622094469498,741221,,1686,1
1622094469498,741241,,1598,1
1622094469498,741261,,1447,1
1622094469498,741281,,1330,1
1622094469498,741301,,1286,1
1622094469498,741322,,1325,1
1622094469498,741342,,1403,1
1622094469498,741362,,1491,1
1622094469498,741382,,1712,1
1622094469498,741402,,1883,1
1622094469498,741422,,1946,1
1622094469498,741442,,1920,1
1622094469498,741462,,1839,1
1622094469498,741482,,1710,1
1622094469498,741502,,1665,1
1622094469498,741522,,1502,1
1622094469498,741543,,1356,1
1622094469498,741563,,1305,1
1622094469498,741583,,1351,1
1622094469498,741603,,1408,1
1622094470147,741624,,1437,1
1622094470147,741644,,1638,1
1622094470147,741664,,1840,1
1622094470147,741684,,1881,1
1622094470147,741704,,1785,1
1622094470147,741724,,1732,1
1622094470147,741744,,1770,1
1622094470147,741765,,1862,1
1622094470147,741785,,2192,1
1622094470147,741805,,2571,1
1622094470147,741825,,2875,1
1622094470147,741845,,2837,1
1622094470147,741865,,2577,1
1622094470147,741885,,2433,1
1622094470147,741905,,2332,1
1622094470147,741925,,2176,1
1622094470147,741945,,2022,1
1622094470147,741965,,1902,1
1622094470147,741986,,1771,1
1622094470147,742006,,1751,1
1622094470147,742026,,1625,1
1622094470147,742046,,1552,1
1622094470147,742066,,1507,1
1622094470147,742086,,1657,1
1622094470147,742106,,1871,1
1622094470326,742127,,2063,1
1622094470326,742147,,2128,1
1622094470326,742167,,2116,1
1622094470326,742187,,2036,1
1622094470326,742208,,1985,1
1622094470326,742228,,1799,1
1622094470326,742248,,1616,1
1622094470326,742268,,1473,1
1622094470326,742288,,1451,1
1622094470326,742308,,1586,1
1622094470326,742328,,1747,1
1622094470326,742348,,1771,1
1622094470326,742368,,1653,1
1622094470326,742388,,1524,1
1622094470326,742408,,1597,1
1622094470326,742429,,1724,1
1622094470326,742449,,1879,1
1622094470326,742469,,2124,1
1622094470326,742489,,2384,1
1622094470326,742509,,2672,0
1622094470326,742529,,2800,0
1622094470326,742549,,2720,0
1622094470326,742569,,2573,0
1622094470326,742589,,2362,0
1622094470326,742609,,2305,0
1622094471151,742629,,2256,0
1622094471151,742650,,2163,0
1622094471151,742670,,2059,0
1622094471151,742690,,1955,0
1622094471151,742710,,1919,0
1622094471151,742730,,1750,0
1622094471151,742750,,1617,0
1622094471151,742770,,1594,0
1622094471151,742790,,1593,0
1622094471151,742810,,1793,0
1622094471151,742830,,2000,0
1622094471151,742850,,2128,0
1622094471151,742871,,2161,0
1622094471151,742891,,2095,0
1622094471151,742911,,2019,0
1622094471151,742931,,1807,0
1622094471151,742951,,1590,0
1622094471151,742971,,1451,0
1622094471151,742991,,1339,0
1622094471151,743011,,1431,0
1622094471151,743031,,1597,0
1622094471151,743051,,1730,0
1622094471151,743071,,1808,0
1622094471151,743092,,1835,0
1622094471151,743112,,1922,0
1622094471543,743132,,1904,0
1622094471543,743152,,2107,0
1622094471543,743172,,2429,0
1622094471543,743192,,2638,0
1622094471543,743212,,2752,0
1622094471543,743232,,2689,0
1622094471543,743252,,2529,0
1622094471543,743272,,2332,0
1622094471543,743292,,2117,0
1622094471543,743312,,1957,0
1622094471543,743332,,1942,0
1622094471543,743352,,1959,0
1622094471543,743372,,1936,0
1622094471543,743392,,1904,0
1622094471543,743412,,1915,0
1622094471543,743432,,1783,0
1622094471543,743452,,1682,0
1622094471543,743472,,1653,0
1622094471543,743492,,1687,0
1622094471543,743512,,1711,1
1622094471543,743533,,1887,1
1622094471543,743553,,2001,1
1622094471543,743573,,2043,1
1622094471543,743593,,2035,1
1622094471543,743613,,1908,1
1622094471824,743634,,1649,1
1622094471824,743654,,1586,1
1622094471824,743674,,1627,1
1622094471824,743694,,1603,1
1622094471824,743714,,1439,1
1622094471824,743734,,1478,1
1622094471824,743755,,1604,1
1622094471824,743775,,1803,1
1622094471824,743795,,2070,1
1622094471824,743815,,2362,1
1622094471824,743835,,2656,0
1622094471824,743855,,2871,0
1622094471824,743875,,2945,0
1622094471824,743895,,2883,0
1622094471824,743915,,2695,0
1622094471824,743935,,2441,0
1622094471824,743955,,2191,0
1622094471824,743976,,1968,0
1622094471824,743996,,1799,0
1622094471824,744016,,1664,0
1622094471824,744036,,1604,0
1622094471824,744056,,1589,0
1622094471824,744076,,1623,0
1622094471824,744096,,1695,0
1622094471824,744116,,1781,0
1622094472889,744137,,1860,0
1622094472889,744157,,1895,0
1622094472889,744177,,1907,0
1622094472889,744198,,1890,0
1622094472889,744218,,1861,0
1622094472889,744238,,1758,0
1622094472889,744258,,1555,0
1622094472889,744278,,1417,0
1622094472889,744298,,1347,0
1622094472889,744318,,1296,0
1622094472889,744338,,1373,0
1622094472889,744358,,1552,0
1622094472889,744378,,1680,0
1622094472889,744398,,1756,0
1622094472889,744419,,1803,0
1622094472889,744439,,1855,0
1622094472889,744459,,2129,0
1622094472889,744479,,2253,0
1622094472889,744499,,2412,0
1622094472889,744519,,2529,0
1622094472889,744539,,2603,0
1622094472889,744559,,2682,0
1622094472889,744579,,2645,0
1622094472889,744599,,2487,0
1622094472889,744619,,2250,0
1622094473001,744640,,2007,0
1622094473001,744660,,1804,0
1622094473001,744680,,1682,0
1622094473001,744700,,1597,0
1622094473001,744720,,1575,0
1622094473001,744740,,1653,0
1622094473001,744760,,1632,0
1622094473001,744780,,1616,0
1622094473001,744800,,1645,0
1622094473001,744820,,1682,0
1622094473001,744840,,1669,1
1622094473001,744861,,1796,1
1622094473001,744881,,1888,1
1622094473001,744901,,1933,1
1622094473001,744921,,1891,1
1622094473001,744941,,1861,1
1622094473001,744961,,1680,1
1622094473001,744981,,1481,1
1622094473001,745001,,1349,1
1622094473001,745021,,1299,1
1622094473001,745041,,1264,1
1622094473001,745061,,1413,1
1622094473001,745082,,1610,1
1622094473001,745102,,1791,1
1622094473001,745122,,1968,1
1622094473401,745143,,2193,1
1622094473401,745163,,2459,1
1622094473401,745183,,2717,0
1622094473401,745203,,2829,0
1622094473401,745223,,2802,0
1622094473401,745243,,2659,0
1622094473401,745263,,2418,0
1622094473401,745283,,2169,0
1622094473401,745304,,1904,0
1622094473401,745324,,1715,0
1622094473401,745344,,1618,0
1622094473401,745364,,1579,0
1622094473401,745384,,1428,0
1622094473401,745404,,1380,0
1622094473401,745424,,1415,0
1622094473401,745444,,1478,0
1622094473401,745464,,1648,0
1622094473401,745484,,1879,0
1622094473401,745504,,2096,0
1622094473401,745525,,2098,0
1622094473401,745545,,1904,0
1622094473401,745565,,1775,0
1622094473401,745585,,1628,0
1622094473401,745605,,1520,0
1622094473401,745625,,1466,0
1622094473911,745645,,1401,0
1622094473911,745665,,1551,0
1622094473911,745685,,1681,0
1622094473911,745705,,1776,0
1622094473911,745725,,1667,0
1622094473911,745746,,1520,0
1622094473911,745766,,1424,0
1622094473911,745786,,1545,0
1622094473911,745806,,1687,0
1622094473911,745826,,1880,0
1622094473911,745846,,2109,0
1622094473911,745866,,2383,0
1622094473911,745886,,2653,0
1622094473911,745906,,2809,0
1622094473911,745926,,2842,0
1622094473911,745946,,2726,0
1622094473911,745967,,2512,0
1622094473911,745987,,2270,0
1622094473911,746007,,2029,0
1622094473911,746027,,1849,0
1622094473911,746047,,1716,0
1622094473911,746067,,1637,0
1622094473911,746087,,1597,0
1622094473911,746107,,1648,0
1622094473911,746127,,1633,0
1622094474954,746147,,1515,0
1622094474954,746167,,1616,0
1622094474954,746188,,1792,1
1622094474954,746208,,1872,1
1622094474954,746228,,1786,1
1622094474954,746248,,1678,1
1622094474954,746268,,1528,1
1622094474954,746288,,1558,1
1622094474954,746308,,1655,1
1622094474954,746328,,1719,1
1622094474954,746348,,1744,1
1622094474954,746368,,1718,1
1622094474954,746388,,1669,1
1622094474954,746409,,1657,1
1622094474954,746429,,1535,1
1622094474954,746449,,1382,1
1622094474954,746469,,1249,1
1622094474954,746489,,1302,1
1622094474954,746509,,1466,1
1622094474954,746529,,1625,1
1622094474954,746549,,1712,1
1622094474954,746569,,1766,1
1622094474954,746589,,1904,1
1622094474954,746609,,1967,1
1622094474954,746630,,2111,1
1622094477190,746650,,2246,1
1622094477190,746670,,2498,1
1622094477190,746690,,2685,1
1622094477190,746710,,2623,1
1622094477190,746730,,2367,1
1622094477190,746750,,2017,1
1622094477190,746770,,1749,1
1622094477190,746790,,1562,1
1622094477190,746810,,1584,1
1622094477190,746830,,1662,1
1622094477190,746851,,1738,1
1622094477190,746871,,1644,1
1622094477190,746891,,1513,1
1622094477190,746911,,1619,1
1622094477190,746931,,1741,1
1622094477190,746951,,1853,1
1622094477190,746971,,1761,1
1622094477190,746991,,1616,1
1622094477190,747011,,1646,1
1622094477190,747031,,1693,1
1622094477190,747051,,1716,1
1622094477190,747072,,1697,1
1622094477190,747092,,1686,1
1622094477190,747112,,1599,1
1622094477190,747132,,1406,1
1622094480464,747152,,1247,1
1622094480464,747172,,1328,1
1622094480464,747192,,1495,1
1622094480464,747212,,1562,1
1622094480464,747232,,1488,1
1622094480464,747252,,1424,1
1622094480464,747272,,1398,1
1622094480464,747293,,1353,1
1622094480464,747313,,1470,1
1622094480464,747333,,1613,1
1622094480464,747353,,1744,1
1622094480464,747373,,1713,1
1622094480464,747393,,1534,1
1622094480464,747413,,1553,1
1622094480464,747433,,1744,1
1622094480464,747453,,2123,1
1622094480464,747473,,2314,1
1622094480464,747493,,2331,1
1622094480464,747514,,2366,1
1622094480464,747534,,2395,1
1622094480464,747554,,2374,1
1622094480464,747574,,2166,1
1622094480464,747594,,1778,1
1622094480464,747614,,1568,1
1622094480464,747634,,1532,1
1622094484503,748661,,1776,0
1622094484503,748681,,1890,0
1622094484503,748701,,2010,0
1622094484503,748721,,1937,0
1622094484503,748741,,1785,0
1622094484503,748761,,1728,0
1622094484503,748781,,1697,0
1622094484503,748801,,1682,0
1622094484503,748821,,1680,0
1622094484503,748841,,1712,0
1622094484503,748861,,1595,0
1622094484503,748881,,1485,0
1622094484503,748901,,1437,0
1622094484503,748921,,1427,0
1622094484503,748941,,1494,0
1622094484503,748961,,1567,0
1622094484503,748981,,1667,0
1622094484503,749001,,1836,0
1622094484503,749021,,2073,0
1622094484503,749041,,2320,0
1622094484503,749062,,2524,0
1622094484503,749082,,2608,0
1622094484503,749102,,2575,0
1622094484503,749122,,2463,0
1622094484503,749142,,2304,0
1622094484823,749162,,2118,0
1622094484823,749182,,2067,0
1622094484823,749202,,2022,0
1622094484823,749222,,1979,0
1622094484823,749242,,1936,0
1622094484823,749262,,1904,0
1622094484823,749283,,1879,0
1622094484823,749303,,1919,0
1622094484823,749323,,1829,0
1622094484823,749343,,1742,0
1622094484823,749363,,1761,0
1622094484823,749383,,1773,1
1622094484823,749403,,1782,1
1622094484823,749423,,1790,1
1622094484823,749443,,1776,1
1622094484823,749463,,1809,1
1622094484823,749483,,1790,1
1622094484823,749504,,1751,1
1622094484823,749524,,1708,1
1622094484823,749544,,1649,1
1622094484823,749564,,1683,1
1622094484823,749584,,1679,1
1622094484823,749604,,1659,1
1622094484823,749624,,1659,1
1622094484823,749644,,1623,1
1622094485552,750166,,1763,1
1622094485552,750186,,1853,1
1622094485552,750206,,1950,1
1622094485552,750226,,1957,1
1622094485552,750246,,1802,1
1622094485552,750266,,1648,1
1622094485552,750286,,1593,1
1622094485552,750306,,1565,1
1622094485552,750326,,1575,1
1622094485552,750346,,1613,1
1622094485552,750366,,1648,1
1622094485552,750387,,1722,1
1622094485552,750407,,1750,1
1622094485552,750427,,1803,1
1622094485552,750447,,1915,1
1622094485552,750467,,2112,1
1622094485552,750487,,2416,1
1622094485552,750507,,2670,1
1622094485552,750527,,2853,1
1622094485552,750547,,2897,1
1622094485552,750567,,2793,1
1622094485552,750587,,2688,1
1622094485552,750608,,2453,0
1622094485552,750628,,2218,0
1622094485552,750648,,2041,0
1622094485787,751171,,1727,0
1622094485787,751191,,2000,0
1622094485787,751211,,2349,0
1622094485787,751231,,2655,0
1622094485787,751251,,2918,0
1622094485787,751272,,2891,0
1622094485787,751292,,2742,0
1622094485787,751312,,2553,0
1622094485787,751332,,2320,0
1622094485787,751352,,2092,0
1622094485787,751372,,1914,0
1622094485787,751392,,1789,0
1622094485787,751412,,1757,0
1622094485787,751432,,1750,0
1622094485787,751452,,1787,0
1622094485787,751472,,1858,0
1622094485787,751493,,1927,0
1622094485787,751513,,2064,0
1622094485787,751533,,2105,0
1622094485787,751553,,2097,0
1622094485787,751573,,2038,0
1622094485787,751593,,1936,0
1622094485787,751613,,1889,0
1622094485787,751633,,1791,0
1622094485787,751653,,1702,0
1622094486013,752178,,1562,0
1622094486013,752198,,1742,0
1622094486013,752218,,1949,0
1622094486013,752238,,2015,0
1622094486013,752258,,1934,0
1622094486013,752278,,1826,0
1622094486013,752298,,1754,0
1622094486013,752318,,1708,0
1622094486013,752338,,1683,0
1622094486013,752358,,1639,0
1622094486013,752379,,1594,0
1622094486013,752399,,1562,0
1622094486013,752419,,1557,0
1622094486013,752439,,1569,0
1622094486013,752459,,1552,0
1622094486013,752479,,1527,0
1622094486013,752499,,1520,0
1622094486013,752519,,1520,0
1622094486013,752539,,1567,0
1622094486013,752559,,1586,0
1622094486013,752579,,1664,0
1622094486013,752600,,1834,0
1622094486013,752620,,2086,0
1622094486013,752640,,2383,0
1622094486013,752660,,2608,0
1622094486352,753183,,1531,0
1622094486352,753203,,1667,0
1622094486352,753223,,1795,0
1622094486352,753243,,1853,0
1622094486352,753264,,1703,0
1622094486352,753284,,1570,0
1622094486352,753304,,1525,0
1622094486352,753324,,1623,0
1622094486352,753344,,1853,0
1622094486352,753364,,2135,0
1622094486352,753384,,2350,0
1622094486352,753404,,2451,0
1622094486352,753424,,2433,0
1622094486352,753444,,2328,0
1622094486352,753464,,2175,0
1622094486352,753485,,1972,0
1622094486352,753505,,1782,0
1622094486352,753525,,1654,0
1622094486352,753545,,1586,0
1622094486352,753565,,1577,0
1622094486352,753585,,1556,0
1622094486352,753605,,1568,0
1622094486352,753625,,1607,0
1622094486352,753645,,1607,0
1622094486352,753665,,1802,1
1622094486915,754190,,1935,0
1622094486915,754210,,1851,0
1622094486915,754230,,1840,0
1622094486915,754250,,1687,0
1622094486915,754270,,1550,0
1622094486915,754290,,1573,0
1622094486915,754310,,1680,0
1622094486915,754330,,1703,0
1622094486915,754350,,1633,0
1622094486915,754371,,1637,0
1622094486915,754391,,1643,0
1622094486915,754411,,1644,0
1622094486915,754431,,1642,0
1622094486915,754451,,1623,0
1622094486915,754471,,1645,0
1622094486915,754491,,1643,0
1622094486915,754511,,1618,0
1622094486915,754531,,1606,0
1622094486915,754551,,1598,0
1622094486915,754571,,1549,0
1622094486915,754592,,1674,0
1622094486915,754612,,1795,0
1622094486915,754632,,1834,0
1622094486915,754652,,1690,0
1622094486915,754672,,1518,0
1622094487079,754693,,1561,0
1622094487079,754713,,1642,0
1622094487079,754733,,1725,0
1622094487079,754753,,1682,0
1622094487079,754773,,1558,0
1622094487079,754793,,1706,0
1622094487079,754814,,1992,0
1622094487079,754834,,2307,0
1622094487079,754854,,2401,0
1622094487079,754874,,2324,0
1622094487079,754894,,2336,0
1622094487079,754914,,2314,0
1622094487079,754934,,2256,0
1622094487079,754954,,2010,0
1622094487079,754974,,1712,0
1622094487079,754994,,1647,0
1622094487079,755014,,1695,0
1622094487079,755035,,1799,0
1622094487079,755055,,1717,0
1622094487079,755075,,1563,0
1622094487079,755095,,1606,1
1622094487079,755115,,1737,1
1622094487079,755135,,1885,1
1622094487079,755155,,1840,1
1622094487079,755175,,1663,1
1622094487256,755196,,1699,1
1622094487256,755216,,1767,1
1622094487256,755236,,1834,1
1622094487256,755257,,1776,1
1622094487256,755277,,1575,1
1622094487256,755297,,1501,1
1622094487256,755317,,1443,1
1622094487256,755337,,1414,1
1622094487256,755357,,1424,1
1622094487256,755377,,1418,1
1622094487256,755397,,1517,1
1622094487256,755417,,1567,1
1622094487256,755437,,1589,1
1622094487256,755457,,1607,1
1622094487256,755478,,1585,1
1622094487256,755498,,1652,1
1622094487256,755518,,1657,1
1622094487256,755538,,1631,1
1622094487256,755558,,1615,1
1622094487256,755578,,1607,1
1622094487256,755598,,1706,1
1622094487256,755618,,1869,1
1622094487256,755638,,2062,1
1622094487256,755658,,2274,1
1622094487256,755678,,2447,0
1622094487457,755698,,2489,0
1622094487457,755718,,2576,0
1622094487457,755738,,2544,0
1622094487457,755758,,2427,0
1622094487457,755778,,2095,0
1622094487457,755798,,1776,0
1622094487457,755818,,1699,0
1622094487457,755838,,1726,0
1622094487457,755858,,1780,0
1622094487457,755878,,1693,0
1622094487457,755898,,1574,0
