localTime,remoteTime,label,bvp,signalOK
1622094381623,758002,,3967,0
1622094381623,758022,,3966,0
1622094381623,758042,,3970,0
1622094381623,758062,,3968,0
1622094381623,758082,,3971,0
1622094381623,758102,,3966,0
1622094381623,758122,,3973,0
1622094381623,758143,,3967,0
1622094381623,758163,,3967,0
1622094381623,758184,,3969,0
1622094381623,758204,,3972,0
1622094381623,758224,,3961,0
1622094381623,758244,,3970,0
1622094381623,758264,,3969,0
1622094381623,758284,,3968,0
1622094381623,758304,,3967,0
1622094381623,758324,,3970,0
1622094381623,758344,,3963,0
1622094381623,758365,,3967,0
1622094381623,758385,,3971,0
1622094381623,758406,,3966,0
1622094381623,758426,,3968,0
1622094381623,758446,,3965,0
1622094381623,758466,,3970,0
1622094381623,758486,,3969,0
1622094381638,758506,,3968,0
1622094381638,758526,,3969,0
1622094381638,758546,,3967,0
1622094381638,758566,,3966,0
1622094381638,758587,,3969,0
1622094381638,758607,,3970,0
1622094381638,758628,,3970,0
1622094381638,758648,,3966,0
1622094381638,758668,,3963,0
1622094381638,758688,,3975,0
1622094381638,758708,,3970,0
1622094381638,758728,,3971,0
1622094381638,758748,,3962,0
1622094381638,758768,,3965,0
1622094381638,758788,,3962,0
1622094381638,758808,,3975,0
1622094381638,758828,,3965,0
1622094381638,758849,,3968,0
1622094381638,758869,,3968,0
1622094381638,758889,,3973,0
1622094381638,758909,,3968,0
1622094381638,758929,,3967,0
1622094381638,758949,,3971,0
1622094381638,758969,,3964,0
1622094381638,758989,,3974,0
1622094381672,759513,,3969,0
1622094381672,759533,,3967,0
1622094381672,759553,,3973,0
1622094381672,759573,,3969,0
1622094381672,759593,,3971,0
1622094381672,759613,,3968,0
1622094381672,759633,,3974,0
1622094381672,759653,,3964,0
1622094381672,759673,,3967,0
1622094381672,759694,,3967,0
1622094381672,759714,,3974,0
1622094381672,759735,,3971,0
1622094381672,759755,,3958,0
1622094381672,759775,,3965,0
1622094381672,759795,,3966,0
1622094381672,759815,,3969,0
1622094381672,759835,,3969,0
1622094381672,759855,,3962,0
1622094381672,759875,,3967,0
1622094381672,759895,,3964,0
1622094381672,759915,,3971,0
1622094381672,759935,,3970,0
1622094381672,759956,,3967,0
1622094381672,759976,,3967,0
1622094381672,759996,,3968,0
1622094381674,760017,,3966,0
1622094381674,760037,,3967,0
1622094381674,760057,,3963,0
1622094381674,760077,,3968,0
1622094381674,760097,,3969,0
1622094381674,760117,,3967,0
1622094381674,760138,,3968,0
1622094381674,760158,,3965,0
1622094381674,760179,,3970,0
1622094381674,760199,,3968,0
1622094381674,760219,,3973,0
1622094381674,760239,,3975,0
1622094381674,760259,,3969,0
1622094381674,760279,,3954,0
1622094381674,760299,,3970,0
1622094381674,760319,,3969,0
1622094381674,760339,,3975,0
1622094381674,760360,,3971,0
1622094381674,760380,,3972,0
1622094381674,760401,,3970,0
1622094381674,760421,,3972,0
1622094381674,760441,,3975,0
1622094381674,760461,,3971,0
1622094381674,760481,,3966,0
1622094381674,760501,,3965,0
1622094381689,760522,,3968,0
1622094381689,760542,,3965,0
1622094381689,760562,,3971,0
1622094381689,760583,,3967,0
1622094381689,760603,,3968,0
1622094381689,760624,,3967,0
1622094381689,760644,,3965,0
1622094381689,760664,,3969,0
1622094381689,760684,,3971,0
1622094381689,760704,,3969,0
1622094381689,760724,,3969,0
1622094381689,760744,,3973,0
1622094381689,760764,,3971,0
1622094381689,760784,,3965,0
1622094381689,760805,,3969,0
1622094381689,760825,,3963,0
1622094381689,760846,,3970,0
1622094381689,760866,,3969,0
1622094381689,760886,,3965,0
1622094381689,760906,,3969,0
1622094381689,760926,,3970,0
1622094381689,760946,,3967,0
1622094381689,760966,,3969,0
1622094381689,760986,,3967,0
1622094381689,761006,,3971,0
1622094381721,761531,,3967,0
1622094381721,761551,,3963,0
1622094381721,761571,,3979,0
1622094381721,761591,,3967,0
1622094381721,761611,,3971,0
1622094381721,761631,,3970,0
1622094381721,761651,,3973,0
1622094381721,761671,,3970,0
1622094381721,761692,,3975,0
1622094381721,761712,,3969,0
1622094381721,761733,,3965,0
1622094381721,761753,,3975,0
1622094381721,761773,,3968,0
1622094381721,761793,,3971,0
1622094381721,761813,,3967,0
1622094381721,761833,,3967,0
1622094381721,761853,,3966,0
1622094381721,761873,,3969,0
1622094381721,761893,,3966,0
1622094381721,761914,,3968,0
1622094381721,761934,,3970,0
1622094381721,761955,,3969,0
1622094381721,761975,,3967,0
1622094381721,761995,,3974,0
1622094381721,762015,,3969,0
1622094381739,762036,,3971,0
1622094381739,762056,,3974,0
1622094381739,762076,,3987,0
1622094381739,762096,,3972,0
1622094381739,762116,,3970,0
1622094381739,762137,,3966,0
1622094381739,762157,,3966,0
1622094381739,762178,,3971,0
1622094381739,762198,,3971,0
1622094381739,762218,,3965,0
1622094381739,762238,,3962,0
1622094381739,762258,,3965,0
1622094381739,762278,,3970,0
1622094381739,762298,,3970,0
1622094381739,762318,,3966,0
1622094381739,762338,,3971,0
1622094381739,762359,,3976,0
1622094381739,762379,,3971,0
1622094381739,762400,,3966,0
1622094381739,762420,,3972,0
1622094381739,762440,,3967,0
1622094381739,762460,,3967,0
1622094381739,762480,,3967,0
1622094381739,762500,,3969,0
1622094381739,762520,,3955,0
1622094381756,763044,,3973,0
1622094381756,763065,,3962,0
1622094381756,763085,,3971,0
1622094381756,763105,,3974,0
1622094381756,763125,,3969,0
1622094381756,763145,,3971,0
1622094381756,763165,,3970,0
1622094381756,763185,,3975,0
1622094381756,763205,,3969,0
1622094381756,763225,,3969,0
1622094381756,763246,,3966,0
1622094381756,763266,,3969,0
1622094381756,763287,,3971,0
1622094381756,763307,,3968,0
1622094381756,763327,,3969,0
1622094381756,763347,,3966,0
1622094381756,763367,,3963,0
1622094381756,763387,,3963,0
1622094381756,763407,,3973,0
1622094381756,763427,,3967,0
1622094381756,763447,,3971,0
1622094381756,763468,,3965,0
1622094381756,763488,,3963,0
1622094381756,763509,,3969,0
1622094381756,763529,,3970,0
1622094381773,763550,,3965,0
1622094381773,763570,,3967,0
1622094381773,763590,,3970,0
1622094381773,763610,,3970,0
1622094381773,763630,,3968,0
1622094381773,763650,,3975,0
1622094381773,763670,,3969,0
1622094381773,763691,,3969,0
1622094381773,763711,,3974,0
1622094381773,763732,,3968,0
1622094381773,763752,,3968,0
1622094381773,763772,,3967,0
1622094381773,763792,,3965,0
1622094381773,763812,,3969,0
1622094381773,763832,,3971,0
1622094381773,763852,,3999,0
1622094381773,763872,,3971,0
1622094381773,763892,,3966,0
1622094381773,763913,,3961,0
1622094381773,763933,,3970,0
1622094381773,763954,,3963,0
1622094381773,763974,,3963,0
1622094381773,763994,,3961,0
1622094381773,764014,,3969,0
1622094381773,764034,,3974,0
1622094382191,764054,,3961,0
1622094382191,764074,,3963,0
1622094382191,764094,,3967,0
1622094382191,764114,,3967,0
1622094382191,764134,,3969,0
1622094382191,764154,,3968,0
1622094382191,764174,,3969,0
1622094382191,764194,,3973,0
1622094382191,764214,,3974,0
1622094382191,764234,,3969,0
1622094382191,764254,,3967,0
1622094382191,764274,,3964,0
1622094382191,764294,,3965,0
1622094382191,764314,,3964,0
1622094382191,764334,,3965,0
1622094382191,764355,,3967,0
1622094382191,764375,,3967,0
1622094382191,764396,,3956,0
1622094382191,764416,,3963,0
1622094382191,764436,,3975,0
1622094382191,764456,,3971,0
1622094382191,764476,,3953,0
1622094382191,764496,,3967,0
1622094382191,764516,,3966,0
1622094382191,764536,,3968,0
1622094382861,764557,,3975,0
1622094382861,764577,,3968,0
1622094382861,764597,,3968,0
1622094382861,764618,,3969,0
1622094382861,764638,,3972,0
1622094382861,764658,,3968,0
1622094382861,764678,,3971,0
1622094382861,764698,,3965,0
1622094382861,764718,,3967,0
1622094382861,764738,,3967,0
1622094382861,764758,,3965,0
1622094382861,764778,,3966,0
1622094382861,764799,,3969,0
1622094382861,764819,,3970,0
1622094382861,764840,,3969,0
1622094382861,764860,,3969,0
1622094382861,764880,,3963,0
1622094382861,764900,,3964,0
1622094382861,764920,,3966,0
1622094382861,764940,,3971,0
1622094382861,764960,,3969,0
1622094382861,764980,,3971,0
1622094382861,765000,,3978,0
1622094382861,765021,,3969,0
1622094382861,765041,,3968,0
1622094383479,765061,,3969,0
1622094383479,765081,,3967,0
1622094383479,765101,,3973,0
1622094383479,765121,,3966,0
1622094383479,765141,,3967,0
1622094383479,765161,,3967,0
1622094383479,765181,,3965,0
1622094383479,765201,,3971,0
1622094383479,765221,,3971,0
1622094383479,765242,,3971,0
1622094383479,765262,,3970,0
1622094383479,765283,,3968,0
1622094383479,765303,,3968,0
1622094383479,765323,,3967,0
1622094383479,765343,,4003,0
1622094383479,765363,,3969,0
1622094383479,765383,,3965,0
1622094383479,765403,,3968,0
1622094383479,765423,,3966,0
1622094383479,765443,,3970,0
1622094383479,765464,,3969,0
1622094383479,765484,,3964,0
1622094383479,765505,,3966,0
1622094383479,765525,,3967,0
1622094383479,765545,,3971,0
1622094383952,765566,,3972,0
1622094383952,765586,,3963,0
1622094383952,765606,,3971,0
1622094383952,765626,,3966,0
1622094383952,765646,,3970,0
1622094383952,765666,,3969,0
1622094383952,765687,,3965,0
1622094383952,765707,,3961,0
1622094383952,765728,,3967,0
1622094383952,765748,,3977,0
1622094383952,765768,,3967,0
1622094383952,765788,,3971,0
1622094383952,765808,,3965,0
1622094383952,765828,,3967,0
1622094383952,765848,,3959,0
1622094383952,765868,,3966,0
1622094383952,765888,,3969,0
1622094383952,765909,,3966,0
1622094383952,765929,,3970,0
1622094383952,765950,,3969,0
1622094383952,765970,,3969,0
1622094383952,765990,,3969,0
1622094383952,766010,,3974,0
1622094383952,766030,,3968,0
1622094383952,766050,,3966,0
1622094384820,766071,,3962,0
1622094384820,766091,,3964,0
1622094384820,766111,,3969,0
1622094384820,766132,,3968,0
1622094384820,766152,,3968,0
1622094384820,766173,,3968,0
1622094384820,766193,,3968,0
1622094384820,766213,,3972,0
1622094384820,766233,,3967,0
1622094384820,766253,,3968,0
1622094384820,766273,,3967,0
1622094384820,766293,,3968,0
1622094384820,766313,,3975,0
1622094384820,766333,,3968,0
1622094384820,766354,,3971,0
1622094384820,766374,,3967,0
1622094384820,766395,,3965,0
1622094384820,766415,,3969,0
1622094384820,766435,,3967,0
1622094384820,766455,,3970,0
1622094384820,766475,,3973,0
1622094384820,766495,,3967,0
1622094384820,766515,,3971,0
1622094384820,766535,,3963,0
1622094384820,766555,,3963,0
1622094384923,766575,,3969,0
1622094384923,766595,,3966,0
1622094384923,766616,,3977,0
1622094384923,766636,,3970,0
1622094384923,766656,,3974,0
1622094384923,766676,,3971,0
1622094384923,766696,,3969,0
1622094384923,766716,,3963,0
1622094384923,766736,,3969,0
1622094384923,766756,,3965,0
1622094384923,766776,,3968,0
1622094384923,766797,,3973,0
1622094384923,766817,,3963,0
1622094384923,766838,,3967,0
1622094384923,766858,,3970,0
1622094384923,766878,,3970,0
1622094384923,766898,,3965,0
1622094384923,766918,,3966,0
1622094384923,766938,,3958,0
1622094384923,766958,,3964,0
1622094384923,766978,,3967,0
1622094384923,766998,,3963,0
1622094384923,767019,,3969,0
1622094384923,767039,,3971,0
1622094384923,767060,,3968,0
1622094385948,767080,,3963,0
1622094385948,767100,,3963,0
1622094385948,767120,,3965,0
1622094385948,767140,,3963,0
1622094385948,767160,,3961,0
1622094385948,767180,,3967,0
1622094385948,767200,,3969,0
1622094385948,767220,,3973,0
1622094385948,767240,,3963,0
1622094385948,767260,,3968,0
1622094385948,767281,,3966,0
1622094385948,767301,,3968,0
1622094385948,767321,,3968,0
1622094385948,767341,,3967,0
1622094385948,767361,,3966,0
1622094385948,767381,,3963,0
1622094385948,767401,,3966,0
1622094385948,767421,,3975,0
1622094385948,767441,,3963,0
1622094385948,767462,,3968,0
1622094385948,767482,,3959,0
1622094385948,767503,,3967,0
1622094385948,767523,,3969,0
1622094385948,767543,,3968,0
1622094385948,767563,,3966,0
1622094386030,767583,,3967,0
1622094386030,767603,,3959,0
1622094386030,767623,,3975,0
1622094386030,767643,,3961,0
1622094386030,767663,,3979,0
1622094386030,767684,,3961,0
1622094386030,767704,,3970,0
1622094386030,767725,,3967,0
1622094386030,767745,,3974,0
1622094386030,767765,,3967,0
1622094386030,767785,,3968,0
1622094386030,767805,,3971,0
1622094386030,767825,,3968,0
1622094386030,767845,,3956,0
1622094386030,767865,,3966,0
1622094386030,767885,,3967,0
1622094386030,767906,,3960,0
1622094386030,767926,,3968,0
1622094386030,767947,,3972,0
1622094386030,767967,,3970,0
1622094386030,767987,,3965,0
1622094386030,768007,,3968,0
1622094386030,768027,,3971,0
1622094386030,768047,,3965,0
1622094386030,768067,,3969,0
1622094386227,768088,,3974,0
1622094386227,768108,,3967,0
1622094386227,768128,,3969,0
1622094386227,768148,,3963,0
1622094386227,768169,,3970,0
1622094386227,768189,,3965,0
1622094386227,768209,,3965,0
1622094386227,768229,,3978,0
1622094386227,768249,,3962,0
1622094386227,768269,,3966,0
1622094386227,768289,,3967,0
1622094386227,768309,,3961,0
1622094386227,768329,,3970,0
1622094386227,768350,,3968,0
1622094386227,768370,,3968,0
1622094386227,768391,,3971,0
1622094386227,768411,,3974,0
1622094386227,768431,,3972,0
1622094386227,768451,,3970,0
1622094386227,768471,,3959,0
1622094386227,768491,,3967,0
1622094386227,768511,,3963,0
1622094386227,768531,,3971,0
1622094386227,768551,,3970,0
1622094386227,768571,,3968,0
1622094386733,768592,,3970,0
1622094386733,768613,,3968,0
1622094386733,768633,,3963,0
1622094386733,768653,,3968,0
1622094386733,768673,,3969,0
1622094386733,768693,,3973,0
1622094386733,768713,,3971,0
1622094386733,768733,,3975,0
1622094386733,768753,,3971,0
1622094386733,768773,,3966,0
1622094386733,768794,,3965,0
1622094386733,768814,,3973,0
1622094386733,768835,,3970,0
1622094386733,768855,,3973,0
1622094386733,768875,,3973,0
1622094386733,768895,,3969,0
1622094386733,768915,,3971,0
1622094386733,768935,,3979,0
1622094386733,768955,,3974,0
1622094386733,768975,,3963,0
1622094386733,768995,,3965,0
1622094386733,769015,,3970,0
1622094386733,769035,,3965,0
1622094386733,769056,,3970,0
1622094386733,769076,,3971,0
1622094387239,769097,,3973,0
1622094387239,769117,,3970,0
1622094387239,769137,,3971,0
1622094387239,769157,,3974,0
1622094387239,769177,,3975,0
1622094387239,769197,,3977,0
1622094387239,769217,,3973,0
1622094387239,769238,,3975,0
1622094387239,769258,,3970,0
1622094387239,769279,,3968,0
1622094387239,769299,,3966,0
1622094387239,769319,,3965,0
1622094387239,769339,,3957,0
1622094387239,769359,,3969,0
1622094387239,769379,,3970,0
1622094387239,769399,,3971,0
1622094387239,769419,,3970,0
1622094387239,769439,,3976,0
1622094387239,769459,,3971,0
1622094387239,769479,,3962,0
1622094387239,769499,,3971,0
1622094387239,769519,,3984,0
1622094387239,769539,,3970,0
1622094387239,769559,,3966,0
1622094387239,769579,,3966,0
1622094387759,769600,,3970,0
1622094387759,769620,,3970,0
1622094387759,769640,,3975,0
1622094387759,769660,,3973,0
1622094387759,769681,,3970,0
1622094387759,769701,,3968,0
1622094387759,769722,,3967,0
1622094387759,769742,,3968,0
1622094387759,769762,,3971,0
1622094387759,769782,,3970,0
1622094387759,769802,,3973,0
1622094387759,769822,,3965,0
1622094387759,769842,,3967,0
1622094387759,769862,,3972,0
1622094387759,769882,,3970,0
1622094387759,769902,,3974,0
1622094387759,769922,,3975,0
1622094387759,769943,,3978,0
1622094387759,769963,,3973,0
1622094387759,769983,,3975,0
1622094387759,770003,,3967,0
1622094387759,770023,,3952,0
1622094387759,770043,,3975,0
1622094387759,770063,,3967,0
1622094387759,770083,,3967,0
1622094388303,770104,,3965,0
1622094388303,770124,,3969,0
1622094388303,770144,,3969,0
1622094388303,770165,,3967,0
1622094388303,770185,,3973,0
1622094388303,770205,,3973,0
1622094388303,770225,,3974,0
1622094388303,770245,,3970,0
1622094388303,770265,,3970,0
1622094388303,770285,,3975,0
1622094388303,770305,,3963,0
1622094388303,770325,,3967,0
1622094388303,770346,,3965,0
1622094388303,770366,,3962,0
1622094388303,770387,,3971,0
1622094388303,770407,,3968,0
1622094388303,770427,,3969,0
1622094388303,770447,,3971,0
1622094388303,770467,,3970,0
1622094388303,770487,,3971,0
1622094388303,770507,,3969,0
1622094388303,770527,,3967,0
1622094388303,770547,,3970,0
1622094388303,770568,,3971,0
1622094388303,770588,,3977,0
1622094389095,770608,,3970,0
1622094389095,770628,,3973,0
1622094389095,770648,,3967,0
1622094389095,770668,,3967,0
1622094389095,770688,,3969,0
1622094389095,770708,,3971,0
1622094389095,770728,,3979,0
1622094389095,770748,,3971,0
1622094389095,770768,,3976,0
1622094389095,770788,,3971,0
1622094389095,770808,,3968,0
1622094389095,770829,,3968,0
1622094389095,770849,,3966,0
1622094389095,770869,,3971,0
1622094389095,770889,,3963,0
1622094389095,770909,,3969,0
1622094389095,770929,,3969,0
1622094389095,770949,,3967,0
1622094389095,770969,,3965,0
1622094389095,770989,,3970,0
1622094389095,771010,,3978,0
1622094389095,771030,,3981,0
1622094389095,771051,,3971,0
1622094389095,771071,,3967,0
1622094389095,771091,,3973,0
1622094389431,771111,,3967,0
1622094389431,771131,,3966,0
1622094389431,771151,,3975,0
1622094389431,771171,,3967,0
1622094389431,771191,,3978,0
1622094389431,771211,,3971,0
1622094389431,771232,,3967,0
1622094389431,771252,,3972,0
1622094389431,771273,,3967,0
1622094389431,771293,,3971,0
1622094389431,771313,,3975,0
1622094389431,771333,,3977,0
1622094389431,771353,,3971,0
1622094389431,771373,,3973,0
1622094389431,771393,,3971,0
1622094389431,771413,,3972,0
1622094389431,771433,,3963,0
1622094389431,771453,,3963,0
1622094389431,771473,,3970,0
1622094389431,771494,,3973,0
1622094389431,771514,,3967,0
1622094389431,771534,,3970,0
1622094389431,771554,,3967,0
1622094389431,771574,,3969,0
1622094389431,771594,,3975,0
1622094389987,771614,,3965,0
1622094389987,771634,,3965,0
1622094389987,771654,,3971,0
1622094389987,771674,,3970,0
1622094389987,771694,,3970,0
1622094389987,771715,,3967,0
1622094389987,771735,,3966,0
1622094389987,771755,,3967,0
1622094389987,771775,,3967,0
1622094389987,771795,,3965,0
1622094389987,771815,,3966,0
1622094389987,771835,,3978,0
1622094389987,771855,,3967,0
1622094389987,771875,,3968,0
1622094389987,771896,,3966,0
1622094389987,771916,,3974,0
1622094389987,771937,,3963,0
1622094389987,771957,,3967,0
1622094389987,771977,,3968,0
1622094389987,771997,,3968,0
1622094389987,772017,,3968,0
1622094389987,772037,,3966,0
1622094389987,772057,,3970,0
1622094389987,772077,,3968,0
1622094389987,772097,,3979,0
1622094390458,772118,,3967,0
1622094390458,772138,,3970,0
1622094390458,772159,,3975,0
1622094390458,772179,,3976,0
1622094390458,772199,,3975,0
1622094390458,772219,,3974,0
1622094390458,772239,,3969,0
1622094390458,772259,,3965,0
1622094390458,772279,,3969,0
1622094390458,772299,,3969,0
1622094390458,772319,,3974,0
1622094390458,772340,,3967,0
1622094390458,772360,,3970,0
1622094390458,772381,,3967,0
1622094390458,772401,,3963,0
1622094390458,772421,,3973,0
1622094390458,772441,,3968,0
1622094390458,772461,,3970,0
1622094390458,772481,,3969,0
1622094390458,772501,,3979,0
1622094390458,772521,,3974,0
1622094390458,772541,,3971,0
1622094390458,772562,,3975,0
1622094390458,772582,,3970,0
1622094390458,772603,,3973,0
1622094390762,772623,,3966,0
1622094390762,772643,,3966,0
1622094390762,772663,,3975,0
1622094390762,772683,,3969,0
1622094390762,772703,,3974,0
1622094390762,772723,,3974,0
1622094390762,772743,,3969,0
1622094390762,772763,,3965,0
1622094390762,772784,,3963,0
1622094390762,772804,,3962,0
1622094390762,772825,,3969,0
1622094390762,772845,,3967,0
1622094390762,772865,,3969,0
1622094390762,772885,,3965,0
1622094390762,772905,,3962,0
1622094390762,772925,,3974,0
1622094390762,772945,,3970,0
1622094390762,772965,,3971,0
1622094390762,772985,,3969,0
1622094390762,773006,,3966,0
1622094390762,773026,,3971,0
1622094390762,773047,,3968,0
1622094390762,773067,,3967,0
1622094390762,773087,,3968,0
1622094390762,773107,,3969,0
1622094391277,773128,,3964,0
1622094391277,773148,,3967,0
1622094391277,773168,,3968,0
1622094391277,773188,,3968,0
1622094391277,773208,,3967,0
1622094391277,773229,,3971,0
1622094391277,773249,,3971,0
1622094391277,773270,,3970,0
1622094391277,773290,,3968,0
1622094391277,773310,,3966,0
1622094391277,773330,,3973,0
1622094391277,773350,,3971,0
1622094391277,773370,,3967,0
1622094391277,773390,,3969,0
1622094391277,773410,,3968,0
1622094391277,773430,,3963,0
1622094391277,773451,,3967,0
1622094391277,773471,,3968,0
1622094391277,773492,,3967,0
1622094391277,773512,,3972,0
1622094391277,773532,,3970,0
1622094391277,773552,,3973,0
1622094391277,773572,,3968,0
1622094391277,773592,,3963,0
1622094391277,773612,,3969,0
1622094391889,773633,,3966,0
1622094391889,773653,,3965,0
1622094391889,773673,,3964,0
1622094391889,773693,,3967,0
1622094391889,773714,,3981,0
1622094391889,773734,,3974,0
1622094391889,773754,,3971,0
1622094391889,773774,,3972,0
1622094391889,773794,,3961,0
1622094391889,773814,,3965,0
1622094391889,773834,,3967,0
1622094391889,773854,,3966,0
1622094391889,773874,,3964,0
1622094391889,773895,,3967,0
1622094391889,773915,,3968,0
1622094391889,773936,,3971,0
1622094391889,773956,,3975,0
1622094391889,773976,,3968,0
1622094391889,773996,,3965,0
1622094391889,774016,,3968,0
1622094391889,774036,,3970,0
1622094391889,774056,,3967,0
1622094391889,774076,,3966,0
1622094391889,774096,,3967,0
1622094391889,774117,,3970,0
1622094392307,774137,,3968,0
1622094392307,774158,,3968,0
1622094392307,774178,,3971,0
1622094392307,774198,,3968,0
1622094392307,774218,,3967,0
1622094392307,774238,,3966,0
1622094392307,774258,,3965,0
1622094392307,774278,,3967,0
1622094392307,774298,,3964,0
1622094392307,774318,,3972,0
1622094392307,774339,,3973,0
1622094392307,774359,,3967,0
1622094392307,774380,,3967,0
1622094392307,774400,,3965,0
1622094392307,774420,,3966,0
1622094392307,774440,,3966,0
1622094392307,774460,,3967,0
1622094392307,774480,,3970,0
1622094392307,774500,,3969,0
1622094392307,774520,,3971,0
1622094392307,774540,,3969,0
1622094392307,774561,,3971,0
1622094392307,774581,,3967,0
1622094392307,774602,,3962,0
1622094392307,774622,,3967,0
1622094393130,774642,,3968,0
1622094393130,774662,,3967,0
1622094393130,774682,,3966,0
1622094393130,774702,,3971,0
1622094393130,774722,,3967,0
1622094393130,774742,,3977,0
1622094393130,774762,,3971,0
1622094393130,774783,,3971,0
1622094393130,774803,,3968,0
1622094393130,774824,,3977,0
1622094393130,774844,,3979,0
1622094393130,774864,,3971,0
1622094393130,774884,,3967,0
1622094393130,774904,,3958,0
1622094393130,774924,,3966,0
1622094393130,774944,,3971,0
1622094393130,774964,,3972,0
1622094393130,774984,,3963,0
1622094393130,775005,,3971,0
1622094393130,775025,,3975,0
1622094393130,775046,,3974,0
1622094393130,775066,,3973,0
1622094393130,775086,,3969,0
1622094393130,775106,,3971,0
1622094393130,775126,,3967,0
1622094393432,775147,,3963,0
1622094393432,775167,,3967,0
1622094393432,775187,,3966,0
1622094393432,775207,,3968,0
1622094393432,775227,,3971,0
1622094393432,775247,,3975,0
1622094393432,775268,,3972,0
1622094393432,775288,,3975,0
1622094393432,775308,,3975,0
1622094393432,775328,,3966,0
1622094393432,775348,,3973,0
1622094393432,775368,,3965,0
1622094393432,775388,,3967,0
1622094393432,775408,,3973,0
1622094393432,775428,,3975,0
1622094393432,775449,,3971,0
1622094393432,775469,,3970,0
1622094393432,775490,,3974,0
1622094393432,775510,,3971,0
1622094393432,775530,,3967,0
1622094393432,775550,,3966,0
1622094393432,775570,,3974,0
1622094393432,775590,,3969,0
1622094393432,775610,,3966,0
1622094393432,775630,,3967,0
1622094393906,775651,,3966,0
1622094393906,775672,,3967,0
1622094393906,775692,,3967,0
1622094393906,775713,,3969,0
1622094393906,775733,,3974,0
1622094393906,775753,,3971,0
1622094393906,775773,,3970,0
1622094393906,775793,,3969,0
1622094393906,775813,,3969,0
1622094393906,775833,,3963,0
1622094393906,775853,,3965,0
1622094393906,775873,,3967,0
1622094393906,775894,,3971,0
1622094393906,775914,,3974,0
1622094393906,775935,,3973,0
1622094393906,775955,,3973,0
1622094393906,775975,,3975,0
1622094393906,775995,,3971,0
1622094393906,776015,,3970,0
1622094393906,776035,,3963,0
1622094393906,776055,,3965,0
1622094393906,776075,,3958,0
1622094393906,776095,,3973,0
1622094393906,776116,,3971,0
1622094393906,776136,,3963,0
1622094394298,776156,,3967,0
1622094394298,776176,,3964,0
1622094394298,776196,,3967,0
1622094394298,776216,,3981,0
1622094394298,776236,,3967,0
1622094394298,776256,,3963,0
1622094394298,776276,,3968,0
1622094394298,776296,,3969,0
1622094394298,776316,,3974,0
1622094394298,776337,,3966,0
1622094394298,776357,,3973,0
1622094394298,776378,,3963,0
1622094394298,776398,,3965,0
1622094394298,776418,,3970,0
1622094394298,776438,,3968,0
1622094394298,776458,,3971,0
1622094394298,776478,,3968,0
1622094394298,776498,,3968,0
1622094394298,776518,,3972,0
1622094394298,776538,,3970,0
1622094394298,776559,,3967,0
1622094394298,776579,,3968,0
1622094394298,776600,,3968,0
1622094394298,776620,,3969,0
1622094394298,776640,,3978,0
1622094395203,776660,,3968,0
1622094395203,776680,,3970,0
1622094395203,776700,,3975,0
1622094395203,776720,,3978,0
1622094395203,776740,,3971,0
1622094395203,776760,,3969,0
1622094395203,776781,,3967,0
1622094395203,776801,,3974,0
1622094395203,776822,,3970,0
1622094395203,776842,,3970,0
1622094395203,776862,,3967,0
1622094395203,776882,,3968,0
1622094395203,776902,,3971,0
1622094395203,776922,,3969,0
1622094395203,776942,,3971,0
1622094395203,776962,,3966,0
1622094395203,776982,,3969,0
1622094395203,777003,,3968,0
1622094395203,777023,,3971,0
1622094395203,777043,,3975,0
1622094395203,777063,,3971,0
1622094395203,777083,,3973,0
1622094395203,777103,,3975,0
1622094395203,777123,,3977,0
1622094395203,777143,,3971,0
1622094397608,777163,,3971,0
1622094397608,777183,,3971,0
1622094397608,777203,,3997,0
1622094397608,777224,,3967,0
1622094397608,777244,,3981,0
1622094397608,777265,,3965,0
1622094397608,777285,,3965,0
1622094397608,777305,,3966,0
1622094397608,777325,,3974,0
1622094397608,777345,,3967,0
1622094397608,777365,,3971,0
1622094397608,777385,,3965,0
1622094397608,777405,,3966,0
1622094397608,777425,,3969,0
1622094397608,777446,,3977,0
1622094397608,777466,,3966,0
1622094397608,777487,,3969,0
1622094397608,777507,,3965,0
1622094397608,777527,,3965,0
1622094397608,777547,,3969,0
1622094397608,777567,,3967,0
1622094397608,777587,,3967,0
1622094397608,777607,,3971,0
1622094397608,777627,,3968,0
1622094397608,777647,,3978,0
1622094399942,777668,,3967,0
1622094399942,777688,,3967,0
1622094399942,777709,,3975,0
1622094399942,777729,,3977,0
1622094399942,777749,,3968,0
1622094399942,777769,,3969,0
1622094399942,777789,,3969,0
1622094399942,777809,,3969,0
1622094399942,777829,,4010,0
1622094399942,777849,,3968,0
1622094399942,777869,,3973,0
1622094399942,777890,,3968,0
1622094399942,777910,,3974,0
1622094399942,777931,,3968,0
1622094399942,777951,,3970,0
1622094399942,777971,,3972,0
1622094399942,777991,,3968,0
1622094399942,778011,,3966,0
1622094399942,778031,,3967,0
1622094399942,778051,,3972,0
1622094399942,778071,,3978,0
1622094399942,778091,,3968,0
1622094399942,778112,,3967,0
1622094399942,778132,,3965,0
1622094399942,778153,,3969,0
1622094401345,778173,,3965,0
1622094401345,778193,,3974,0
1622094401345,778213,,3975,0
1622094401345,778233,,3973,0
1622094401345,778253,,3973,0
1622094401345,778273,,3967,0
1622094401345,778293,,3966,0
1622094401345,778313,,3965,0
1622094401345,778334,,3963,0
1622094401345,778354,,3971,0
1622094401345,778375,,3962,0
1622094401345,778395,,3973,0
1622094401345,778415,,3963,0
1622094401345,778435,,3970,0
1622094401345,778455,,3974,0
1622094401345,778475,,3971,0
1622094401345,778495,,3961,0
1622094401345,778515,,3971,0
1622094401345,778535,,3968,0
1622094401345,778556,,3967,0
1622094401345,778576,,3966,0
1622094401345,778597,,3967,0
1622094401345,778617,,3970,0
1622094401345,778637,,3970,0
1622094401345,778657,,3981,0
1622094401692,778677,,3969,0
1622094401692,778697,,3969,0
1622094401692,778717,,3979,0
1622094401692,778737,,3973,0
1622094401692,778757,,3975,0
1622094401692,778778,,3970,0
1622094401692,778798,,3965,0
1622094401692,778819,,3977,0
1622094401692,778839,,3967,0
1622094401692,778859,,3977,0
1622094401692,778879,,3972,0
1622094401692,778899,,3963,0
1622094401692,778919,,3968,0
1622094401692,778939,,3968,0
1622094401692,778959,,3977,0
1622094401692,778979,,3973,0
1622094401692,779000,,3966,0
1622094401692,779020,,3962,0
1622094401692,779041,,3964,0
1622094401692,779061,,3979,0
1622094401692,779081,,3977,0
1622094401692,779101,,3967,0
1622094401692,779121,,3969,0
1622094401692,779141,,3968,0
1622094401692,779161,,3961,0
1622094402116,779182,,3969,0
1622094402116,779202,,3967,0
1622094402116,779222,,3973,0
1622094402116,779242,,3975,0
1622094402116,779263,,3970,0
1622094402116,779283,,3973,0
1622094402116,779303,,3969,0
1622094402116,779323,,3965,0
1622094402116,779343,,3973,0
1622094402116,779363,,3971,0
1622094402116,779383,,3973,0
1622094402116,779403,,3977,0
1622094402116,779423,,3970,0
1622094402116,779444,,3966,0
1622094402116,779464,,3971,0
1622094402116,779485,,3978,0
1622094402116,779505,,3969,0
1622094402116,779525,,3969,0
1622094402116,779545,,3967,0
1622094402116,779565,,3966,0
1622094402116,779585,,3969,0
1622094402116,779605,,3967,0
1622094402116,779625,,3976,0
1622094402116,779645,,3970,0
1622094402116,779666,,3973,0
1622094402422,779686,,3971,0
1622094402422,779707,,3965,0
1622094402422,779727,,3973,0
1622094402422,779747,,3971,0
1622094402422,779767,,3971,0
1622094402422,779787,,3970,0
1622094402422,779807,,3976,0
1622094402422,779827,,3971,0
1622094402422,779847,,3969,0
1622094402422,779867,,3970,0
1622094402422,779888,,3971,0
1622094402422,779908,,3974,0
1622094402422,779929,,3965,0
1622094402422,779949,,3967,0
1622094402422,779969,,3967,0
1622094402422,779989,,3971,0
1622094402422,780009,,3975,0
1622094402422,780029,,3970,0
1622094402422,780049,,3973,0
1622094402422,780069,,3966,0
1622094402422,780089,,3967,0
1622094402422,780109,,3977,0
1622094402422,780129,,3967,0
1622094402422,780149,,3969,0
1622094402422,780169,,3969,0
1622094402627,780190,,3968,0
1622094402627,780210,,3967,0
1622094402627,780230,,3967,0
1622094402627,780250,,3965,0
1622094402627,780270,,3967,0
1622094402627,780290,,3978,0
1622094402627,780310,,3971,0
1622094402627,780331,,3966,0
1622094402627,780351,,3970,0
1622094402627,780372,,3967,0
1622094402627,780392,,3972,0
1622094402627,780412,,3971,0
1622094402627,780432,,3978,0
1622094402627,780452,,3966,0
1622094402627,780472,,3969,0
1622094402627,780492,,3974,0
1622094402627,780512,,3974,0
1622094402627,780532,,3973,0
1622094402627,780552,,3972,0
1622094402627,780572,,3972,0
1622094402627,780593,,3973,0
1622094402627,780613,,3970,0
1622094402627,780633,,3973,0
1622094402627,780653,,3977,0
1622094402627,780673,,3968,0
1622094402990,780694,,3964,0
1622094402990,780714,,3965,0
1622094402990,780734,,3975,0
1622094402990,780754,,3971,0
1622094402990,780775,,3969,0
1622094402990,780795,,3968,0
1622094402990,780816,,3975,0
1622094402990,780836,,3974,0
1622094402990,780856,,3975,0
1622094402990,780876,,3968,0
1622094402990,780896,,3970,0
1622094402990,780916,,3973,0
1622094402990,780936,,3969,0
1622094402990,780956,,3970,0
1622094402990,780976,,3975,0
1622094402990,780996,,3970,0
1622094402990,781016,,3969,0
1622094402990,781037,,3971,0
1622094402990,781057,,3965,0
1622094402990,781077,,3968,0
1622094402990,781097,,3969,0
1622094402990,781117,,3975,0
1622094402990,781137,,3978,0
1622094402990,781157,,3974,0
1622094402990,781177,,3970,0
1622094405327,784221,,3965,0
1622094405327,784241,,3964,0
1622094405327,784261,,3973,0
1622094405327,784281,,3977,0
1622094405327,784301,,3974,0
1622094405327,784322,,3973,0
1622094405327,784342,,3964,0
1622094405327,784363,,3970,0
1622094405327,784383,,3968,0
1622094405327,784403,,3971,0
1622094405327,784423,,3971,0
1622094405327,784443,,3969,0
1622094405327,784463,,3973,0
1622094405327,784483,,3967,0
1622094405327,784503,,3973,0
1622094405327,784523,,3970,0
1622094405327,784544,,3960,0
1622094405327,784564,,3965,0
1622094405327,784585,,3967,0
1622094405327,784605,,3967,0
1622094405327,784625,,3974,0
1622094405327,784645,,3969,0
1622094405327,784665,,3966,0
1622094405327,784685,,3966,0
1622094405327,784705,,3969,0
1622094406225,784725,,3968,0
1622094406225,784745,,3964,0
1622094406225,784765,,3962,0
1622094406225,784785,,3978,0
1622094406225,784806,,3973,0
1622094406225,784826,,3977,0
1622094406225,784846,,3966,0
1622094406225,784866,,3959,0
1622094406225,784886,,3971,0
1622094406225,784906,,3970,0
1622094406225,784926,,3966,0
1622094406225,784946,,3967,0
1622094406225,784966,,3969,0
1622094406225,784987,,3971,0
1622094406225,785007,,3969,0
1622094406225,785028,,3968,0
1622094406225,785048,,3939,0
1622094406225,785068,,3966,0
1622094406225,785088,,3960,0
1622094406225,785108,,3971,0
1622094406225,785128,,3974,0
1622094406225,785148,,3970,0
1622094406225,785168,,3963,0
1622094406225,785188,,3967,0
1622094406225,785209,,3972,0
1622094406931,785229,,3967,0
1622094406931,785250,,3969,0
1622094406931,785270,,3977,0
1622094406931,785290,,3969,0
1622094406931,785310,,3973,0
1622094406931,785330,,3969,0
1622094406931,785350,,3968,0
1622094406931,785370,,3968,0
1622094406931,785390,,3964,0
1622094406931,785410,,3977,0
1622094406931,785431,,3970,0
1622094406931,785451,,3969,0
1622094406931,785472,,3970,0
1622094406931,785492,,3967,0
1622094406931,785512,,3973,0
1622094406931,785532,,3975,0
1622094406931,785552,,3971,0
1622094406931,785572,,3971,0
1622094406931,785592,,3968,0
1622094406931,785612,,3967,0
1622094406931,785632,,3969,0
1622094406931,785653,,3970,0
1622094406931,785673,,3974,0
1622094406931,785694,,3966,0
1622094406931,785714,,3973,0
1622094407427,785734,,3965,0
1622094407427,785754,,3967,0
1622094407427,785774,,3972,0
1622094407427,785794,,3971,0
1622094407427,785814,,3970,0
1622094407427,785834,,3975,0
1622094407427,785854,,3973,0
1622094407427,785875,,3973,0
1622094407427,785895,,3965,0
1622094407427,785916,,3971,0
1622094407427,785936,,3976,0
1622094407427,785956,,3970,0
1622094407427,785976,,3966,0
1622094407427,785996,,3963,0
1622094407427,786016,,3970,0
1622094407427,786036,,3974,0
1622094407427,786056,,3973,0
1622094407427,786076,,3967,0
1622094407427,786097,,3970,0
1622094407427,786117,,3972,0
1622094407427,786138,,3974,0
1622094407427,786158,,3973,0
1622094407427,786178,,3968,0
1622094407427,786198,,3973,0
1622094407427,786218,,3971,0
1622094408846,786744,,3970,0
1622094408846,786764,,3965,0
1622094408846,786784,,3968,0
1622094408846,786804,,3967,0
1622094408846,786824,,3972,0
1622094408846,786844,,3976,0
1622094408846,786864,,3973,0
1622094408846,786884,,3967,0
1622094408846,786904,,3975,0
1622094408846,786924,,3967,0
1622094408846,786944,,3969,0
1622094408846,786964,,3970,0
1622094408846,786985,,3968,0
1622094408846,787005,,3967,0
1622094408846,787026,,3968,0
1622094408846,787046,,3977,0
1622094408846,787066,,3970,0
1622094408846,787086,,3970,0
1622094408846,787106,,3959,0
1622094408846,787126,,3975,0
1622094408846,787146,,3969,0
1622094408846,787166,,3966,0
1622094408846,787186,,3968,0
1622094408846,787206,,3968,0
1622094408846,787226,,3973,0
1622094409935,788255,,3973,0
1622094409935,788275,,3965,0
1622094409935,788295,,3971,0
1622094409935,788316,,3971,0
1622094409935,788336,,3970,0
1622094409935,788357,,3966,0
1622094409935,788377,,3975,0
1622094409935,788397,,3979,0
1622094409935,788417,,3974,0
1622094409935,788437,,3963,0
1622094409935,788457,,3965,0
1622094409935,788477,,3968,0
1622094409935,788497,,3968,0
1622094409935,788517,,3969,0
1622094409935,788538,,3966,0
1622094409935,788558,,3963,0
1622094409935,788579,,3959,0
1622094409935,788599,,3979,0
1622094409935,788619,,3975,0
1622094409935,788639,,3977,0
1622094409935,788659,,3968,0
1622094409935,788679,,3966,0
1622094409935,788699,,3968,0
1622094409935,788719,,3973,0
1622094409935,788739,,3964,0
1622094410431,788759,,3973,0
1622094410431,788779,,3969,0
1622094410431,788800,,3970,0
1622094410431,788820,,3973,0
1622094410431,788840,,3970,0
1622094410431,788860,,3973,0
1622094410431,788880,,3970,0
1622094410431,788900,,3969,0
1622094410431,788920,,3975,0
1622094410431,788940,,3973,0
1622094410431,788960,,3978,0
1622094410431,788981,,3974,0
1622094410431,789001,,3968,0
1622094410431,789022,,3975,0
1622094410431,789042,,3977,0
1622094410431,789062,,3966,0
1622094410431,789082,,3962,0
1622094410431,789102,,3973,0
1622094410431,789122,,3969,0
1622094410431,789142,,3966,0
1622094410431,789162,,3967,0
1622094410431,789182,,3970,0
1622094410431,789203,,3971,0
1622094410431,789223,,3978,0
1622094410431,789244,,3965,0
1622094410596,789264,,3967,0
1622094410596,789284,,3963,0
1622094410596,789304,,3980,0
1622094410596,789324,,3974,0
1622094410596,789344,,3969,0
1622094410596,789364,,3967,0
1622094410596,789384,,3969,0
1622094410596,789404,,3971,0
1622094410596,789425,,3973,0
1622094410596,789445,,3964,0
1622094410596,789466,,3977,0
1622094410596,789486,,3969,0
1622094410596,789506,,3973,0
1622094410596,789526,,3975,0
1622094410596,789546,,3969,0
1622094410596,789566,,3971,0
1622094410596,789586,,3969,0
1622094410596,789606,,3977,0
1622094410596,789626,,3971,0
1622094410596,789646,,3974,0
1622094410596,789666,,3973,0
1622094410596,789687,,3974,0
1622094410596,789707,,3972,0
1622094410596,789727,,3972,0
1622094410596,789747,,3968,0
1622094410733,789767,,3967,0
1622094410733,789787,,3965,0
1622094410733,789807,,3975,0
1622094410733,789827,,3975,0
1622094410733,789847,,3975,0
1622094410733,789868,,3973,0
1622094410733,789888,,3972,0
1622094410733,789909,,3969,0
1622094410733,789929,,3969,0
1622094410733,789949,,3969,0
1622094410733,789969,,3975,0
1622094410733,789989,,3969,0
1622094410733,790009,,3968,0
1622094410733,790029,,3974,0
1622094410733,790049,,3974,0
1622094410733,790069,,3977,0
1622094410733,790089,,3971,0
1622094410733,790109,,3972,0
1622094410733,790130,,3973,0
1622094410733,790150,,3967,0
1622094410733,790170,,3973,0
1622094410733,790190,,3972,0
1622094410733,790210,,3968,0
1622094410733,790230,,3969,0
1622094410733,790250,,3971,0
1622094410889,790270,,4001,0
1622094410889,790290,,3966,0
1622094410889,790310,,3965,0
1622094410889,790330,,3982,0
1622094410889,790351,,3967,0
1622094410889,790371,,3973,0
1622094410889,790391,,3975,0
1622094410889,790411,,3966,0
1622094410889,790431,,3973,0
1622094410889,790451,,3970,0
1622094410889,790471,,3960,0
1622094410889,790491,,3966,0
1622094410889,790511,,3969,0
1622094410889,790531,,3978,0
1622094410889,790551,,3973,0
1622094410889,790572,,3965,0
1622094410889,790592,,3974,0
1622094410889,790612,,3974,0
1622094410889,790632,,3971,0
1622094410889,790652,,3974,0
1622094410889,790672,,3965,0
1622094410889,790692,,3973,0
1622094410889,790712,,3971,0
1622094410889,790732,,3968,0
1622094410889,790753,,3968,0
1622094410944,790773,,3961,0
1622094410944,790794,,3969,0
1622094410944,790814,,3965,0
1622094410944,790834,,3972,0
1622094410944,790854,,3967,0
1622094410944,790874,,3976,0
1622094410944,790894,,3971,0
1622094410944,790914,,3969,0
1622094410944,790934,,3975,0
1622094410944,790954,,3970,0
1622094410944,790975,,3973,0
1622094410944,790995,,3975,0
1622094410944,791016,,3974,0
1622094410944,791036,,3972,0
1622094410944,791056,,3969,0
1622094410944,791076,,3975,0
1622094410944,791096,,3971,0
1622094410944,791116,,3971,0
1622094410944,791136,,3973,0
1622094410944,791156,,3968,0
1622094410944,791176,,3966,0
1622094410944,791197,,3971,0
1622094410944,791217,,3970,0
1622094410944,791238,,3970,0
1622094410944,791258,,3970,0
1622094410960,791278,,3971,0
1622094410960,791298,,3962,0
1622094410960,791318,,3966,0
1622094410960,791338,,3967,0
1622094410960,791358,,3971,0
1622094410960,791378,,3967,0
1622094410960,791398,,3972,0
1622094410960,791419,,3970,0
1622094410960,791439,,3971,0
1622094410960,791460,,3980,0
1622094410960,791480,,3966,0
1622094410960,791500,,3965,0
1622094410960,791520,,3971,0
1622094410960,791540,,3973,0
1622094410960,791560,,3969,0
1622094410960,791580,,3970,0
1622094410960,791600,,3973,0
1622094410960,791620,,3971,0
1622094410960,791641,,3971,0
1622094410960,791661,,3968,0
1622094410960,791682,,3971,0
1622094410960,791702,,3967,0
1622094410960,791722,,3974,0
1622094410960,791742,,3968,0
1622094410960,791762,,3970,0
1622094410979,791782,,3963,0
1622094410979,791802,,3963,0
1622094410979,791822,,3967,0
1622094410979,791842,,3969,0
1622094410979,791863,,3972,0
1622094410979,791883,,3966,0
1622094410979,791904,,3959,0
1622094410979,791924,,3971,0
1622094410979,791944,,3971,0
1622094410979,791964,,3973,0
1622094410979,791984,,3969,0
1622094410979,792004,,3963,0
1622094410979,792024,,3971,0
1622094410979,792044,,3968,0
1622094410979,792064,,3969,0
1622094410979,792085,,3967,0
1622094410979,792105,,3968,0
1622094410979,792126,,3973,0
1622094410979,792146,,3968,0
1622094410979,792166,,3970,0
1622094410979,792186,,3968,0
1622094410979,792206,,3968,0
1622094410979,792226,,3974,0
1622094410979,792246,,3968,0
1622094410979,792266,,3971,0
1622094411004,792286,,3967,0
1622094411004,792306,,3963,0
1622094411004,792326,,3967,0
1622094411004,792347,,3969,0
1622094411004,792367,,3970,0
1622094411004,792387,,3975,0
1622094411004,792407,,3971,0
1622094411004,792427,,3970,0
1622094411004,792447,,3967,0
1622094411004,792467,,3967,0
1622094411004,792487,,3969,0
1622094411004,792507,,3967,0
1622094411004,792528,,3971,0
1622094411004,792548,,3970,0
1622094411004,792569,,3971,0
1622094411004,792589,,3968,0
1622094411004,792609,,3969,0
1622094411004,792629,,3975,0
1622094411004,792649,,3969,0
1622094411004,792669,,3970,0
1622094411004,792689,,3967,0
1622094411004,792709,,3972,0
1622094411004,792729,,3970,0
1622094411004,792750,,3967,0
1622094411004,792770,,3970,0
1622094411026,792790,,3970,0
1622094411026,792810,,3967,0
1622094411026,792830,,3920,0
1622094411026,792850,,3971,0
1622094411026,792870,,3967,0
1622094411026,792890,,3972,0
1622094411026,792910,,3969,0
1622094411026,792930,,3967,0
1622094411026,792950,,3968,0
1622094411026,792971,,3969,0
1622094411026,792991,,3971,0
1622094411026,793012,,3974,0
1622094411026,793032,,3967,0
1622094411026,793052,,3967,0
1622094411026,793072,,3969,0
1622094411026,793092,,3969,0
1622094411026,793112,,3970,0
1622094411026,793132,,3967,0
1622094411026,793152,,3967,0
1622094411026,793172,,3970,0
1622094411026,793192,,3967,0
1622094411026,793212,,3969,0
1622094411026,793233,,3961,0
1622094411026,793253,,3969,0
1622094411026,793273,,3971,0
1622094411434,793293,,3971,0
1622094411434,793313,,3965,0
1622094411434,793333,,3975,0
1622094411434,793353,,3963,0
1622094411434,793373,,3970,0
1622094411434,793393,,3967,0
1622094411434,793413,,3970,0
1622094411434,793433,,3968,0
1622094411434,793454,,3970,0
1622094411434,793474,,3968,0
1622094411434,793494,,3968,0
1622094411434,793514,,3971,0
1622094411434,793534,,3973,0
1622094411434,793554,,3973,0
1622094411434,793574,,3970,0
1622094411434,793594,,3971,0
1622094411434,793614,,3969,0
1622094411434,793635,,3967,0
1622094411434,793655,,3967,0
1622094411434,793676,,3968,0
1622094411434,793696,,3968,0
1622094411434,793716,,3974,0
1622094411434,793736,,3967,0
1622094411434,793756,,3969,0
1622094411434,793776,,3970,0
1622094412202,793796,,3963,0
1622094412202,793816,,3965,0
1622094412202,793836,,3973,0
1622094412202,793857,,3969,0
1622094412202,793877,,3963,0
1622094412202,793898,,3969,0
1622094412202,793918,,3970,0
1622094412202,793938,,3967,0
1622094412202,793958,,3968,0
1622094412202,793978,,3973,0
1622094412202,793998,,3975,0
1622094412202,794018,,3966,0
1622094412202,794038,,3970,0
1622094412202,794058,,3967,0
1622094412202,794079,,3969,0
1622094412202,794099,,3974,0
1622094412202,794120,,3965,0
1622094412202,794140,,3973,0
1622094412202,794160,,3972,0
1622094412202,794180,,3971,0
1622094412202,794200,,3971,0
1622094412202,794220,,3967,0
1622094412202,794240,,3969,0
1622094412202,794260,,3961,0
1622094412202,794280,,3968,0
1622094412765,794301,,3967,0
1622094412765,794321,,3962,0
1622094412765,794342,,3971,0
1622094412765,794362,,3962,0
1622094412765,794382,,3966,0
1622094412765,794402,,3967,0
1622094412765,794422,,3967,0
1622094412765,794442,,3975,0
1622094412765,794462,,3959,0
1622094412765,794482,,3969,0
1622094412765,794502,,3977,0
1622094412765,794522,,3971,0
1622094412765,794542,,3968,0
1622094412765,794563,,3968,0
1622094412765,794583,,3966,0
1622094412765,794603,,3967,0
1622094412765,794623,,3968,0
1622094412765,794643,,3970,0
1622094412765,794663,,3967,0
1622094412765,794683,,3970,0
1622094412765,794703,,3968,0
1622094412765,794723,,3970,0
1622094412765,794744,,3968,0
1622094412765,794764,,3971,0
1622094412765,794785,,3968,0
1622094413380,794805,,3967,0
1622094413380,794825,,3963,0
1622094413380,794845,,3969,0
1622094413380,794865,,3970,0
1622094413380,794885,,3971,0
1622094413380,794905,,3968,0
1622094413380,794925,,3964,0
1622094413380,794945,,3968,0
1622094413380,794965,,3969,0
1622094413380,794985,,3970,0
1622094413380,795006,,3970,0
1622094413380,795026,,3965,0
1622094413380,795046,,3971,0
1622094413380,795066,,3964,0
1622094413380,795086,,3971,0
1622094413380,795106,,3971,0
1622094413380,795126,,3972,0
1622094413380,795146,,3967,0
1622094413380,795166,,3963,0
1622094413380,795187,,3968,0
1622094413380,795207,,3969,0
1622094413380,795228,,3967,0
1622094413380,795248,,3970,0
1622094413380,795268,,3970,0
1622094413380,795288,,3969,0
1622094413810,795308,,3966,0
1622094413810,795328,,3963,0
1622094413810,795348,,3969,0
1622094413810,795368,,3966,0
1622094413810,795388,,3966,0
1622094413810,795408,,3969,0
1622094413810,795428,,3971,0
1622094413810,795449,,3971,0
1622094413810,795469,,3973,0
1622094413810,795489,,3961,0
1622094413810,795509,,3972,0
1622094413810,795529,,3967,0
1622094413810,795549,,3970,0
1622094413810,795569,,3973,0
1622094413810,795589,,3955,0
1622094413810,795609,,3965,0
1622094413810,795629,,3967,0
1622094413810,795649,,3971,0
1622094413810,795670,,3970,0
1622094413810,795690,,3969,0
1622094413810,795710,,3967,0
1622094413810,795730,,3963,0
1622094413810,795750,,3974,0
1622094413810,795770,,3965,0
1622094413810,795790,,3973,0
1622094414015,795810,,3967,0
1622094414015,795830,,3967,0
1622094414015,795851,,3968,0
1622094414015,795871,,3967,0
1622094414015,795892,,3974,0
1622094414015,795912,,3975,0
1622094414015,795932,,3973,0
1622094414015,795952,,3970,0
1622094414015,795972,,3969,0
1622094414015,795992,,3970,0
1622094414015,796012,,3966,0
1622094414015,796032,,3971,0
1622094414015,796052,,3968,0
1622094414015,796072,,3967,0
1622094414015,796092,,3969,0
1622094414015,796113,,3968,0
1622094414015,796133,,3971,0
1622094414015,796153,,3966,0
1622094414015,796173,,3959,0
1622094414015,796193,,3970,0
1622094414015,796213,,3968,0
1622094414015,796233,,3966,0
1622094414015,796253,,3965,0
1622094414015,796273,,3973,0
1622094414015,796293,,3970,0
1622094414639,796313,,3968,0
1622094414639,796334,,3971,0
1622094414639,796354,,3967,0
1622094414639,796374,,3969,0
1622094414639,796394,,3966,0
1622094414639,796414,,3970,0
1622094414639,796434,,3963,0
1622094414639,796454,,3978,0
1622094414639,796474,,3971,0
1622094414639,796494,,3973,0
1622094414639,796514,,3967,0
1622094414639,796534,,3969,0
1622094414639,796555,,3966,0
1622094414639,796575,,3967,0
1622094414639,796595,,3966,0
1622094414639,796615,,3965,0
1622094414639,796635,,3963,0
1622094414639,796655,,3967,0
1622094414639,796675,,3969,0
1622094414639,796695,,3967,0
1622094414639,796715,,3973,0
1622094414639,796735,,3974,0
1622094414639,796755,,3967,0
1622094414639,796776,,3972,0
1622094414639,796796,,3971,0
1622094415636,796816,,3963,0
1622094415636,796836,,3978,0
1622094415636,796856,,3977,0
1622094415636,796876,,3973,0
1622094415636,796896,,3971,0
1622094415636,796916,,3970,0
1622094415636,796936,,3964,0
1622094415636,796957,,3963,0
1622094415636,796977,,3969,0
1622094415636,796998,,3962,0
1622094415636,797018,,3967,0
1622094415636,797038,,3974,0
1622094415636,797058,,3978,0
1622094415636,797078,,3971,0
1622094415636,797098,,3973,0
1622094415636,797118,,3973,0
1622094415636,797138,,3969,0
1622094415636,797158,,3969,0
1622094415636,797178,,3968,0
1622094415636,797198,,3966,0
1622094415636,797219,,3970,0
1622094415636,797239,,3971,0
1622094415636,797259,,3967,0
1622094415636,797279,,3971,0
1622094415636,797299,,3979,0
1622094415671,797319,,3967,0
1622094415671,797339,,3971,0
1622094415671,797359,,3971,0
1622094415671,797379,,3967,0
1622094415671,797400,,3969,0
1622094415671,797420,,3968,0
1622094415671,797441,,3963,0
1622094415671,797461,,3970,0
1622094415671,797481,,3968,0
1622094415671,797501,,3967,0
1622094415671,797521,,3965,0
1622094415671,797541,,3973,0
1622094415671,797561,,3971,0
1622094415671,797581,,3978,0
1622094415671,797601,,3971,0
1622094415671,797622,,3970,0
1622094415671,797642,,3963,0
1622094415671,797663,,3966,0
1622094415671,797683,,3968,0
1622094415671,797703,,3973,0
1622094415671,797723,,3966,0
1622094415671,797743,,3965,0
1622094415671,797763,,3970,0
1622094415671,797783,,3971,0
1622094415671,797803,,3974,0
1622094416157,797823,,3967,0
1622094416157,797843,,3967,0
1622094416157,797863,,3971,0
1622094416157,797884,,3971,0
1622094416157,797904,,3970,0
1622094416157,797924,,3973,0
1622094416157,797944,,3959,0
1622094416157,797964,,3976,0
1622094416157,797984,,3966,0
1622094416157,798004,,3971,0
1622094416157,798024,,3974,0
1622094416157,798044,,3968,0
1622094416157,798064,,3966,0
1622094416157,798084,,3973,0
1622094416157,798105,,3973,0
1622094416157,798125,,3972,0
1622094416157,798145,,3969,0
1622094416157,798165,,3961,0
1622094416157,798185,,3967,0
1622094416157,798205,,3968,0
1622094416157,798225,,3968,0
1622094416157,798245,,3957,0
1622094416157,798265,,3967,0
1622094416157,798286,,3970,0
1622094416157,798306,,3967,0
1622094416661,798326,,3967,0
1622094416661,798346,,3972,0
1622094416661,798366,,3971,0
1622094416661,798386,,3971,0
1622094416661,798406,,3978,0
1622094416661,798426,,3971,0
1622094416661,798446,,3971,0
1622094416661,798466,,3968,0
1622094416661,798486,,3965,0
1622094416661,798507,,3966,0
1622094416661,798527,,3965,0
1622094416661,798548,,3963,0
1622094416661,798568,,3973,0
1622094416661,798588,,3973,0
1622094416661,798608,,3969,0
1622094416661,798628,,3968,0
1622094416661,798648,,3971,0
1622094416661,798668,,3964,0
1622094416661,798688,,3967,0
1622094416661,798708,,3965,0
1622094416661,798728,,3966,0
1622094416661,798748,,3965,0
1622094416661,798769,,3970,0
1622094416661,798789,,3978,0
1622094416661,798809,,3971,0
1622094417076,798829,,3967,0
1622094417076,798849,,3963,0
1622094417076,798869,,3970,0
1622094417076,798889,,3968,0
1622094417076,798909,,3973,0
1622094417076,798929,,3969,0
1622094417076,798950,,3966,0
1622094417076,798970,,3969,0
1622094417076,798990,,3967,0
1622094417076,799010,,3963,0
1622094417076,799030,,3967,0
1622094417076,799050,,3969,0
1622094417076,799070,,3974,0
1622094417076,799090,,3971,0
1622094417076,799110,,3968,0
1622094417076,799130,,3967,0
1622094417076,799150,,3973,0
1622094417076,799171,,3970,0
1622094417076,799191,,3972,0
1622094417076,799212,,3965,0
1622094417076,799232,,3969,0
1622094417076,799252,,3966,0
1622094417076,799272,,3970,0
1622094417076,799292,,3959,0
1622094417076,799312,,3971,0
1622094417821,799332,,3967,0
1622094417821,799352,,3967,0
1622094417821,799372,,3967,0
1622094417821,799392,,3969,0
1622094417821,799412,,3963,0
1622094417821,799433,,3971,0
1622094417821,799453,,3969,0
1622094417821,799473,,3968,0
1622094417821,799493,,3977,0
1622094417821,799513,,3971,0
1622094417821,799533,,3971,0
1622094417821,799553,,3970,0
1622094417821,799573,,3968,0
1622094417821,799593,,3971,0
1622094417821,799614,,3967,0
1622094417821,799634,,3971,0
1622094417821,799655,,3968,0
1622094417821,799675,,3974,0
1622094417821,799695,,3962,0
1622094417821,799715,,3970,0
1622094417821,799735,,3975,0
1622094417821,799755,,3977,0
1622094417821,799775,,3973,0
1622094417821,799795,,3965,0
1622094417821,799815,,3961,0
1622094418147,799835,,3974,0
1622094418147,799855,,3963,0
1622094418147,799876,,3971,0
1622094418147,799896,,3975,0
1622094418147,799916,,3969,0
1622094418147,799936,,3968,0
1622094418147,799956,,3969,0
1622094418147,799976,,3970,0
1622094418147,799996,,3966,0
1622094418147,800016,,3962,0
1622094418147,800036,,3961,0
1622094418147,800057,,3974,0
1622094418147,800077,,3969,0
1622094418147,800098,,3968,0
1622094418147,800118,,3968,0
1622094418147,800138,,3962,0
1622094418147,800158,,3966,0
1622094418147,800178,,3970,0
1622094418147,800198,,3968,0
1622094418147,800218,,3967,0
1622094418147,800238,,3968,0
1622094418147,800258,,3967,0
1622094418147,800279,,3967,0
1622094418147,800299,,3974,0
1622094418147,800320,,3974,0
1622094418478,800340,,3967,0
1622094418478,800360,,3971,0
1622094418478,800380,,3973,0
1622094418478,800400,,3961,0
1622094418478,800420,,3963,0
1622094418478,800440,,3966,0
1622094418478,800460,,3975,0
1622094418478,800480,,3964,0
1622094418478,800501,,3968,0
1622094418478,800521,,3971,0
1622094418478,800542,,3967,0
1622094418478,800562,,3973,0
1622094418478,800582,,3970,0
1622094418478,800602,,3965,0
1622094418478,800622,,3966,0
1622094418478,800642,,3967,0
1622094418478,800662,,3966,0
1622094418478,800682,,3968,0
1622094418478,800702,,3967,0
1622094418478,800723,,3971,0
1622094418478,800743,,3962,0
1622094418478,800763,,3968,0
1622094418478,800783,,3971,0
1622094418478,800803,,3974,0
1622094418478,800823,,3965,0
1622094418986,800844,,3973,0
1622094418986,800864,,3970,0
1622094418986,800884,,3968,0
1622094418986,800904,,3969,0
1622094418986,800924,,3971,0
1622094418986,800945,,3966,0
1622094418986,800965,,3973,0
1622094418986,800986,,3975,0
1622094418986,801006,,3971,0
1622094418986,801026,,3973,0
1622094418986,801046,,3967,0
1622094418986,801066,,3969,0
1622094418986,801086,,3973,0
1622094418986,801106,,3971,0
1622094418986,801126,,3967,0
1622094418986,801146,,3971,0
1622094418986,801167,,3970,0
1622094418986,801187,,3968,0
1622094418986,801208,,3966,0
1622094418986,801228,,3967,0
1622094418986,801248,,3969,0
1622094418986,801268,,3966,0
1622094418986,801288,,3974,0
1622094418986,801308,,3968,0
1622094418986,801328,,3968,0
1622094419550,801348,,3967,0
1622094419550,801368,,3968,0
1622094419550,801389,,3975,0
1622094419550,801409,,3967,0
1622094419550,801430,,3978,0
1622094419550,801450,,3967,0
1622094419550,801470,,3973,0
1622094419550,801490,,3967,0
1622094419550,801510,,3967,0
1622094419550,801530,,3968,0
1622094419550,801550,,3969,0
1622094419550,801570,,3975,0
1622094419550,801590,,3974,0
1622094419550,801611,,3971,0
1622094419550,801631,,3968,0
1622094419550,801652,,3968,0
1622094419550,801672,,3963,0
1622094419550,801692,,3968,0
1622094419550,801712,,3974,0
1622094419550,801732,,3971,0
1622094419550,801752,,3967,0
1622094419550,801772,,3979,0
1622094419550,801792,,3975,0
1622094419550,801812,,3974,0
1622094419550,801832,,3974,0
1622094420843,801852,,3969,0
1622094420843,801873,,3967,0
1622094420843,801893,,3967,0
1622094420843,801913,,3966,0
1622094420843,801933,,3974,0
1622094420843,801953,,3978,0
1622094420843,801973,,3973,0
1622094420843,801993,,3969,0
1622094420843,802013,,3972,0
1622094420843,802033,,3973,0
1622094420843,802054,,3969,0
1622094420843,802074,,3963,0
1622094420843,802095,,3966,0
1622094420843,802115,,3970,0
1622094420843,802135,,3971,0
1622094420843,802155,,3977,0
1622094420843,802175,,3971,0
1622094420843,802195,,3971,0
1622094420843,802215,,3973,0
1622094420843,802235,,3970,0
1622094420843,802255,,3968,0
1622094420843,802276,,3971,0
1622094420843,802296,,3969,0
1622094420843,802316,,3968,0
1622094420843,802336,,3967,0
1622094424461,802357,,3968,0
1622094424461,802377,,3969,0
1622094424461,802397,,3971,0
1622094424461,802417,,3975,0
1622094424461,802437,,3971,0
1622094424461,802457,,3964,0
1622094424461,802477,,3961,0
1622094424461,802498,,3971,0
1622094424461,802518,,3969,0
1622094424461,802539,,3966,0
1622094424461,802559,,3973,0
1622094424461,802579,,3965,0
1622094424461,802599,,3975,0
1622094424461,802619,,3974,0
1622094424461,802639,,3966,0
1622094424461,802659,,3980,0
1622094424461,802679,,3971,0
1622094424461,802699,,3969,0
1622094424461,802719,,3979,0
1622094424461,802739,,3971,0
1622094424461,802760,,3968,0
1622094424461,802780,,3970,0
1622094424461,802800,,3965,0
1622094424461,802820,,3969,0
1622094424461,802840,,3974,0
1622094426690,803364,,3967,0
1622094426690,803384,,3965,0
1622094426690,803404,,3973,0
1622094426690,803425,,3975,0
1622094426690,803445,,3971,0
1622094426690,803465,,3971,0
1622094426690,803485,,3970,0
1622094426690,803505,,3975,0
1622094426690,803525,,3972,0
1622094426690,803545,,3967,0
1622094426690,803565,,3968,0
1622094426690,803585,,3956,0
1622094426690,803606,,3965,0
1622094426690,803626,,3965,0
1622094426690,803647,,3967,0
1622094426690,803667,,3975,0
1622094426690,803687,,3975,0
1622094426690,803707,,3973,0
1622094426690,803727,,3970,0
1622094426690,803747,,3971,0
1622094426690,803767,,3969,0
1622094426690,803787,,3967,0
1622094426690,803807,,3971,0
1622094426690,803828,,3967,0
1622094426690,803848,,3970,0
1622094427053,803868,,3975,0
1622094427053,803888,,3966,0
1622094427053,803908,,3974,0
1622094427053,803928,,3972,0
1622094427053,803948,,3973,0
1622094427053,803968,,3977,0
1622094427053,803988,,3968,0
1622094427053,804008,,3968,0
1622094427053,804028,,3974,0
1622094427053,804049,,3973,0
1622094427053,804069,,3967,0
1622094427053,804090,,3971,0
1622094427053,804110,,3970,0
1622094427053,804130,,3979,0
1622094427053,804150,,3969,0
1622094427053,804170,,3974,0
1622094427053,804190,,3962,0
1622094427053,804210,,3965,0
1622094427053,804230,,3967,0
1622094427053,804250,,3975,0
1622094427053,804271,,3969,0
1622094427053,804291,,3979,0
1622094427053,804312,,3965,0
1622094427053,804332,,3967,0
1622094427053,804352,,3978,0
1622094427246,804372,,3970,0
1622094427246,804392,,3963,0
1622094427246,804412,,3973,0
1622094427246,804432,,3975,0
1622094427246,804452,,3975,0
1622094427246,804472,,3969,0
1622094427246,804493,,3973,0
1622094427246,804513,,3961,0
1622094427246,804534,,3967,0
1622094427246,804554,,3963,0
1622094427246,804574,,3969,0
1622094427246,804594,,3970,0
1622094427246,804614,,3975,0
1622094427246,804634,,3972,0
1622094427246,804654,,3974,0
1622094427246,804674,,3973,0
1622094427246,804694,,3971,0
1622094427246,804715,,3975,0
1622094427246,804735,,3973,0
1622094427246,804756,,3968,0
1622094427246,804776,,3970,0
1622094427246,804796,,3972,0
1622094427246,804816,,3968,0
1622094427246,804836,,3967,0
1622094427246,804856,,3971,0
1622094427967,805381,,3967,0
1622094427967,805401,,3968,0
1622094427967,805422,,3965,0
1622094427967,805442,,3966,0
1622094427967,805462,,3970,0
1622094427967,805482,,3977,0
1622094427967,805502,,3976,0
1622094427967,805522,,3971,0
1622094427967,805542,,3969,0
1622094427967,805562,,3967,0
1622094427967,805582,,3979,0
1622094427967,805602,,3974,0
1622094427967,805622,,3977,0
1622094427967,805643,,3971,0
1622094427967,805663,,3967,0
1622094427967,805683,,3975,0
1622094427967,805703,,3971,0
1622094427967,805723,,3975,0
1622094427967,805743,,3963,0
1622094427967,805763,,3975,0
1622094427967,805783,,3973,0
1622094427967,805803,,3971,0
1622094427967,805824,,3971,0
1622094427967,805844,,3967,0
1622094427967,805865,,3974,0
1622094428173,805885,,3967,0
1622094428173,805905,,3971,0
1622094428173,805925,,3973,0
1622094428173,805945,,3969,0
1622094428173,805965,,3974,0
1622094428173,805985,,3979,0
1622094428173,806005,,3974,0
1622094428173,806025,,3973,0
1622094428173,806046,,3970,0
1622094428173,806066,,3966,0
1622094428173,806087,,3969,0
1622094428173,806107,,3977,0
1622094428173,806127,,3972,0
1622094428173,806147,,3967,0
1622094428173,806167,,3959,0
1622094428173,806187,,3967,0
1622094428173,806207,,3974,0
1622094428173,806227,,3973,0
1622094428173,806247,,3971,0
1622094428173,806268,,3964,0
1622094428173,806288,,3971,0
1622094428173,806309,,3969,0
1622094428173,806329,,3974,0
1622094428173,806349,,3973,0
1622094428173,806369,,3967,0
1622094429181,807398,,3967,0
1622094429181,807419,,3969,0
1622094429181,807439,,3971,0
1622094429181,807459,,3969,0
1622094429181,807479,,3967,0
1622094429181,807499,,3973,0
1622094429181,807519,,3968,0
1622094429181,807539,,3971,0
1622094429181,807559,,3970,0
1622094429181,807579,,3966,0
1622094429181,807600,,3966,0
1622094429181,807620,,3966,0
1622094429181,807641,,3971,0
1622094429181,807661,,3977,0
1622094429181,807681,,3966,0
1622094429181,807701,,3970,0
1622094429181,807721,,3966,0
1622094429181,807741,,3971,0
1622094429181,807761,,3967,0
1622094429181,807781,,3968,0
1622094429181,807801,,3967,0
1622094429181,807822,,3971,0
1622094429181,807842,,3971,0
1622094429181,807863,,3971,0
1622094429181,807883,,3966,0
1622094429406,807903,,3974,0
1622094429406,807923,,3965,0
1622094429406,807943,,3972,0
1622094429406,807963,,3973,0
1622094429406,807983,,3969,0
1622094429406,808003,,3962,0
1622094429406,808023,,3965,0
1622094429406,808044,,3968,0
1622094429406,808064,,3971,0
1622094429406,808085,,3967,0
1622094429406,808105,,3968,0
1622094429406,808125,,3966,0
1622094429406,808145,,3967,0
1622094429406,808165,,3975,0
1622094429406,808185,,3969,0
1622094429406,808205,,3973,0
1622094429406,808225,,3971,0
1622094429406,808245,,3971,0
1622094429406,808266,,3975,0
1622094429406,808286,,3971,0
1622094429406,808307,,3970,0
1622094429406,808327,,3966,0
1622094429406,808347,,3971,0
1622094429406,808367,,3969,0
1622094429406,808387,,3972,0
1622094430114,808407,,3968,0
1622094430114,808427,,3963,0
1622094430114,808447,,3971,0
1622094430114,808467,,3969,0
1622094430114,808488,,3975,0
1622094430114,808508,,3963,0
1622094430114,808529,,3974,0
1622094430114,808549,,3968,0
1622094430114,808569,,3977,0
1622094430114,808589,,3973,0
1622094430114,808609,,3965,0
1622094430114,808629,,3963,0
1622094430114,808649,,3970,0
1622094430114,808669,,3979,0
1622094430114,808689,,3978,0
1622094430114,808710,,3967,0
1622094430114,808730,,3967,0
1622094430114,808751,,3967,0
1622094430114,808771,,3971,0
1622094430114,808791,,3973,0
1622094430114,808811,,3969,0
1622094430114,808831,,3974,0
1622094430114,808851,,3972,0
1622094430114,808871,,3971,0
1622094430114,808891,,3973,0
1622094430474,808911,,3968,0
1622094430474,808931,,3973,0
1622094430474,808951,,3973,0
1622094430474,808972,,3975,0
1622094430474,808992,,3971,0
1622094430474,809012,,3965,0
1622094430474,809032,,3963,0
1622094430474,809052,,3967,0
1622094430474,809072,,3973,0
1622094430474,809092,,3970,0
1622094430474,809112,,3967,0
1622094430474,809132,,3962,0
1622094430474,809152,,3967,0
1622094430474,809172,,3973,0
1622094430474,809193,,3970,0
1622094430474,809213,,3963,0
1622094430474,809233,,3970,0
1622094430474,809253,,3969,0
1622094430474,809273,,3971,0
1622094430474,809293,,3969,0
1622094430474,809313,,3970,0
1622094430474,809333,,3971,0
1622094430474,809353,,3964,0
1622094430474,809374,,3970,0
1622094430474,809394,,3974,0
1622094433940,811934,,3967,0
1622094433940,811954,,3971,0
1622094433940,811974,,3964,0
1622094433940,811994,,3970,0
1622094433940,812014,,3968,0
1622094433940,812035,,3971,0
1622094433940,812055,,3970,0
1622094433940,812076,,3967,0
1622094433940,812096,,3961,0
1622094433940,812116,,3970,0
1622094433940,812136,,3962,0
1622094433940,812156,,3963,0
1622094433940,812176,,3975,0
1622094433940,812196,,3966,0
1622094433940,812216,,3971,0
1622094433940,812236,,3968,0
1622094433940,812257,,3970,0
1622094433940,812277,,3974,0
1622094433940,812298,,3967,0
1622094433940,812318,,3967,0
1622094433940,812338,,3967,0
1622094433940,812358,,3973,0
1622094433940,812378,,3970,0
1622094433940,812398,,3955,0
1622094433940,812418,,3963,0
1622094434444,812439,,3967,0
1622094434444,812459,,3963,0
1622094434444,812479,,3968,0
1622094434444,812499,,3967,0
1622094434444,812520,,3970,0
1622094434444,812540,,3967,0
1622094434444,812560,,3969,0
1622094434444,812580,,3977,0
1622094434444,812600,,3968,0
1622094434444,812620,,3970,0
1622094434444,812640,,3972,0
1622094434444,812660,,3971,0
1622094434444,812680,,3970,0
1622094434444,812701,,3959,0
1622094434444,812721,,3969,0
1622094434444,812742,,3962,0
1622094434444,812762,,3972,0
1622094434444,812782,,3973,0
1622094434444,812802,,3966,0
1622094434444,812822,,3967,0
1622094434444,812842,,3968,0
1622094434444,812862,,3971,0
1622094434444,812882,,3969,0
1622094434444,812902,,3969,0
1622094434444,812922,,3970,0
1622094435380,812942,,3967,0
1622094435380,812963,,3966,0
1622094435380,812983,,3967,0
1622094435380,813003,,3965,0
1622094435380,813023,,3964,0
1622094435380,813043,,3969,0
1622094435380,813063,,3970,0
1622094435380,813083,,3970,0
1622094435380,813103,,3965,0
1622094435380,813123,,3968,0
1622094435380,813144,,3967,0
1622094435380,813164,,3967,0
1622094435380,813185,,3969,0
1622094435380,813205,,3967,0
1622094435380,813225,,3969,0
1622094435380,813245,,3965,0
1622094435380,813265,,3971,0
1622094435380,813285,,3972,0
1622094435380,813305,,3965,0
1622094435380,813325,,3964,0
1622094435380,813345,,3969,0
1622094435380,813366,,3979,0
1622094435380,813386,,3973,0
1622094435380,813407,,3969,0
1622094435380,813427,,3962,0
1622094435535,813448,,3967,0
1622094435535,813468,,3964,0
1622094435535,813488,,3969,0
1622094435535,813508,,3965,0
1622094435535,813528,,3970,0
1622094435535,813548,,3969,0
1622094435535,813568,,3963,0
1622094435535,813588,,3965,0
1622094435535,813608,,3975,0
1622094435535,813628,,3971,0
1622094435535,813648,,3974,0
1622094435535,813668,,3968,0
1622094435535,813688,,3970,0
1622094435535,813708,,3968,0
1622094435535,813728,,3964,0
1622094435535,813748,,3967,0
1622094435535,813768,,3968,0
1622094435535,813788,,3965,0
1622094435535,813809,,3968,0
1622094435535,813829,,3961,0
1622094435535,813850,,3968,0
1622094435535,813870,,3969,0
1622094435535,813890,,3970,0
1622094435535,813910,,3970,0
1622094435535,813930,,3963,0
1622094435596,813951,,3965,0
1622094435596,813971,,3966,0
1622094435596,813991,,3967,0
1622094435596,814011,,3973,0
1622094435596,814032,,3971,0
1622094435596,814052,,3967,0
1622094435596,814073,,3968,0
1622094435596,814093,,3971,0
1622094435596,814113,,3974,0
1622094435596,814133,,3965,0
1622094435596,814153,,3963,0
1622094435596,814173,,3971,0
1622094435596,814193,,3971,0
1622094435596,814213,,3975,0
1622094435596,814233,,3966,0
1622094435596,814253,,3969,0
1622094435596,814273,,3969,0
1622094435596,814294,,3973,0
1622094435596,814314,,3973,0
1622094435596,814334,,3963,0
1622094435596,814354,,3969,0
1622094435596,814374,,3965,0
1622094435596,814394,,3974,0
1622094435596,814414,,3968,0
1622094435596,814434,,3969,0
1622094435618,814454,,3966,0
1622094435618,814474,,3966,0
1622094435618,814494,,3965,0
1622094435618,814515,,3969,0
1622094435618,814535,,3967,0
1622094435618,814555,,3972,0
1622094435618,814575,,3973,0
1622094435618,814595,,3970,0
1622094435618,814615,,3969,0
1622094435618,814635,,3967,0
1622094435618,814655,,3962,0
1622094435618,814675,,3966,0
1622094435618,814696,,3970,0
1622094435618,814716,,3969,0
1622094435618,814737,,3959,0
1622094435618,814757,,3973,0
1622094435618,814777,,3974,0
1622094435618,814797,,3969,0
1622094435618,814817,,3972,0
1622094435618,814837,,3971,0
1622094435618,814857,,3970,0
1622094435618,814877,,3969,0
1622094435618,814897,,3967,0
1622094435618,814918,,3967,0
1622094435618,814938,,3968,0
1622094435636,814958,,3966,0
1622094435636,814978,,3962,0
1622094435636,814998,,3962,0
1622094435636,815018,,3968,0
1622094435636,815038,,3971,0
1622094435636,815058,,3963,0
1622094435636,815078,,3965,0
1622094435636,815098,,3967,0
1622094435636,815118,,3970,0
1622094435636,815139,,3967,0
1622094435636,815159,,3965,0
1622094435636,815180,,3969,0
1622094435636,815200,,3968,0
1622094435636,815220,,3968,0
1622094435636,815240,,3969,0
1622094435636,815260,,3966,0
1622094435636,815280,,3968,0
1622094435636,815300,,3967,0
1622094435636,815320,,3975,0
1622094435636,815340,,3970,0
1622094435636,815361,,3970,0
1622094435636,815381,,3966,0
1622094435636,815402,,3966,0
1622094435636,815422,,3974,0
1622094435636,815442,,3974,0
1622094435640,815462,,3966,0
1622094435640,815482,,3966,0
1622094435640,815502,,3970,0
1622094435640,815522,,3975,0
1622094435640,815542,,3967,0
1622094435640,815562,,3968,0
1622094435640,815582,,3968,0
1622094435640,815602,,3963,0
1622094435640,815623,,3974,0
1622094435640,815643,,3969,0
1622094435640,815663,,3965,0
1622094435640,815683,,3965,0
1622094435640,815703,,3968,0
1622094435640,815723,,3971,0
1622094435640,815743,,3970,0
1622094435640,815763,,3963,0
1622094435640,815783,,3969,0
1622094435640,815804,,3970,0
1622094435640,815824,,3966,0
1622094435640,815845,,3968,0
1622094435640,815865,,3964,0
1622094435640,815885,,3965,0
1622094435640,815905,,3965,0
1622094435640,815925,,3975,0
1622094435640,815945,,3975,0
1622094435669,815965,,3967,0
1622094435669,815985,,3963,0
1622094435669,816005,,3971,0
1622094435669,816026,,3968,0
1622094435669,816046,,3969,0
1622094435669,816067,,3971,0
1622094435669,816087,,3969,0
1622094435669,816107,,3968,0
1622094435669,816127,,3975,0
1622094435669,816147,,3975,0
1622094435669,816167,,3974,0
1622094435669,816187,,3963,0
1622094435669,816207,,3970,0
1622094435669,816227,,3967,0
1622094435669,816248,,3971,0
1622094435669,816268,,3974,0
1622094435669,816289,,3967,0
1622094435669,816309,,3968,0
1622094435669,816329,,3971,0
1622094435669,816349,,3974,0
1622094435669,816369,,3967,0
1622094435669,816389,,3965,0
1622094435669,816409,,3967,0
1622094435669,816429,,3967,0
1622094435669,816449,,3977,0
1622094435703,816469,,3959,0
1622094435703,816489,,3967,0
1622094435703,816510,,3970,0
1622094435703,816530,,3967,0
1622094435703,816550,,3972,0
1622094435703,816570,,3975,0
1622094435703,816590,,3968,0
1622094435703,816610,,3964,0
1622094435703,816630,,3969,0
1622094435703,816650,,3974,0
1622094435703,816670,,3973,0
1622094435703,816691,,3965,0
1622094435703,816711,,3969,0
1622094435703,816732,,3967,0
1622094435703,816752,,3969,0
1622094435703,816772,,3975,0
1622094435703,816792,,3960,0
1622094435703,816812,,3966,0
1622094435703,816832,,3971,0
1622094435703,816852,,3967,0
1622094435703,816872,,3973,0
1622094435703,816892,,3967,0
1622094435703,816912,,3971,0
1622094435703,816932,,3967,0
1622094435703,816953,,3971,0
1622094435720,816973,,3965,0
1622094435720,816993,,3966,0
1622094435720,817013,,3969,0
1622094435720,817033,,3958,0
1622094435720,817053,,3963,0
1622094435720,817073,,3973,0
1622094435720,817093,,3962,0
1622094435720,817113,,3970,0
1622094435720,817133,,3967,0
1622094435720,817153,,3971,0
1622094435720,817174,,3971,0
1622094435720,817194,,3968,0
1622094435720,817214,,3968,0
1622094435720,817234,,3972,0
1622094435720,817254,,3973,0
1622094435720,817274,,3972,0
1622094435720,817294,,3973,0
1622094435720,817314,,3972,0
1622094435720,817334,,3969,0
1622094435720,817355,,3969,0
1622094435720,817375,,3979,0
1622094435720,817396,,3969,0
1622094435720,817416,,3965,0
1622094435720,817436,,3965,0
1622094435720,817456,,3966,0
1622094435738,817477,,3968,0
1622094435738,817497,,3973,0
1622094435738,817517,,3967,0
1622094435738,817537,,3970,0
1622094435738,817557,,3973,0
1622094435738,817578,,3968,0
1622094435738,817598,,3968,0
1622094435738,817619,,3970,0
1622094435738,817639,,3967,0
1622094435738,817659,,3969,0
1622094435738,817679,,3965,0
1622094435738,817699,,3970,0
1622094435738,817719,,3963,0
1622094435738,817739,,3963,0
1622094435738,817759,,3967,0
1622094435738,817779,,3970,0
1622094435738,817800,,3971,0
1622094435738,817820,,3966,0
1622094435738,817841,,3969,0
1622094435738,817861,,3969,0
1622094435738,817881,,3967,0
1622094435738,817901,,3967,0
1622094435738,817921,,3974,0
1622094435738,817941,,3968,0
1622094435738,817961,,3966,0
1622094436123,817981,,3968,0
1622094436123,818001,,3970,0
1622094436123,818022,,3970,0
1622094436123,818042,,3966,0
1622094436123,818063,,3969,0
1622094436123,818083,,3972,0
1622094436123,818103,,3967,0
1622094436123,818123,,3966,0
1622094436123,818143,,3966,0
1622094436123,818163,,3972,0
1622094436123,818183,,3975,0
1622094436123,818203,,3979,0
1622094436123,818223,,3969,0
1622094436123,818243,,3971,0
1622094436123,818263,,3974,0
1622094436123,818284,,3967,0
1622094436123,818304,,3968,0
1622094436123,818324,,3969,0
1622094436123,818344,,3968,0
1622094436123,818364,,3962,0
1622094436123,818384,,3976,0
1622094436123,818404,,3970,0
1622094436123,818424,,3968,0
1622094436123,818444,,3971,0
1622094436123,818465,,3969,0
1622094436627,818485,,3970,0
1622094436627,818506,,3966,0
1622094436627,818526,,3968,0
1622094436627,818546,,3969,0
1622094436627,818566,,3966,0
1622094436627,818586,,3974,0
1622094436627,818606,,3972,0
1622094436627,818626,,3974,0
1622094436627,818646,,3967,0
1622094436627,818666,,3973,0
1622094436627,818687,,3967,0
1622094436627,818707,,3966,0
1622094436627,818728,,3973,0
1622094436627,818748,,3973,0
1622094436627,818768,,3971,0
1622094436627,818788,,3967,0
1622094436627,818808,,3971,0
1622094436627,818828,,3969,0
1622094436627,818848,,3968,0
1622094436627,818868,,3970,0
1622094436627,818888,,3974,0
1622094436627,818909,,3972,0
1622094436627,818929,,3982,0
1622094436627,818950,,3968,0
1622094436627,818970,,3968,0
1622094437131,818990,,3969,0
1622094437131,819010,,3967,0
1622094437131,819030,,3969,0
1622094437131,819050,,3966,0
1622094437131,819070,,3974,0
1622094437131,819090,,3964,0
1622094437131,819110,,3967,0
1622094437131,819131,,3966,0
1622094437131,819151,,3970,0
1622094437131,819172,,3970,0
1622094437131,819192,,3968,0
1622094437131,819212,,3965,0
1622094437131,819232,,3966,0
1622094437131,819252,,3973,0
1622094437131,819272,,3969,0
1622094437131,819292,,3971,0
1622094437131,819312,,3971,0
1622094437131,819332,,3970,0
1622094437131,819353,,3967,0
1622094437131,819373,,3970,0
1622094437131,819394,,3969,0
1622094437131,819414,,3968,0
1622094437131,819434,,3973,0
1622094437131,819454,,3968,0
1622094437131,819474,,3968,0
1622094437646,819495,,3963,0
1622094437646,819515,,3962,0
1622094437646,819535,,3967,0
1622094437646,819555,,3967,0
1622094437646,819576,,3966,0
1622094437646,819596,,3968,0
1622094437646,819617,,3975,0
1622094437646,819637,,3969,0
1622094437646,819657,,3967,0
1622094437646,819677,,3975,0
1622094437646,819697,,3974,0
1622094437646,819717,,3979,0
1622094437646,819737,,3973,0
1622094437646,819757,,3966,0
1622094437646,819777,,3971,0
1622094437646,819798,,3966,0
1622094437646,819818,,3966,0
1622094437646,819839,,3970,0
1622094437646,819859,,3969,0
1622094437646,819879,,3961,0
1622094437646,819899,,3967,0
1622094437646,819919,,3970,0
1622094437646,819939,,3975,0
1622094437646,819959,,3969,0
1622094437646,819979,,3965,0
1622094438161,820000,,3963,0
1622094438161,820020,,3967,0
1622094438161,820040,,3967,0
1622094438161,820061,,3970,0
1622094438161,820081,,3967,0
1622094438161,820101,,3968,0
1622094438161,820121,,3969,0
1622094438161,820141,,3975,0
1622094438161,820161,,3971,0
1622094438161,820181,,3967,0
1622094438161,820201,,3971,0
1622094438161,820221,,3968,0
1622094438161,820242,,3967,0
1622094438161,820262,,3970,0
1622094438161,820283,,3964,0
1622094438161,820303,,3969,0
1622094438161,820323,,3969,0
1622094438161,820343,,3972,0
1622094438161,820363,,3969,0
1622094438161,820383,,3967,0
1622094438161,820403,,3974,0
1622094438161,820423,,3971,0
1622094438161,820443,,3975,0
1622094438161,820464,,3978,0
1622094438161,820484,,3971,0
1622094438663,820504,,3967,0
1622094438663,820524,,3970,0
1622094438663,820544,,3967,0
1622094438663,820564,,3969,0
1622094438663,820584,,3969,0
1622094438663,820604,,3969,0
1622094438663,820624,,3968,0
1622094438663,820644,,3968,0
1622094438663,820664,,3970,0
1622094438663,820685,,3969,0
1622094438663,820705,,3968,0
1622094438663,820726,,3975,0
1622094438663,820746,,3969,0
1622094438663,820766,,3970,0
1622094438663,820786,,3971,0
1622094438663,820806,,3967,0
1622094438663,820826,,3973,0
1622094438663,820846,,3968,0
1622094438663,820866,,3969,0
1622094438663,820886,,3964,0
1622094438663,820907,,3973,0
1622094438663,820927,,3967,0
1622094438663,820948,,3970,0
1622094438663,820968,,3973,0
1622094438663,820988,,3966,0
1622094439170,821009,,3966,0
1622094439170,821029,,3969,0
1622094439170,821049,,3970,0
1622094439170,821069,,3975,0
1622094439170,821089,,3966,0
1622094439170,821109,,3968,0
1622094439170,821130,,3972,0
1622094439170,821150,,3975,0
1622094439170,821171,,3974,0
1622094439170,821191,,3962,0
1622094439170,821211,,3967,0
1622094439170,821231,,3969,0
1622094439170,821251,,3971,0
1622094439170,821271,,3965,0
1622094439170,821291,,3969,0
1622094439170,821311,,3973,0
1622094439170,821331,,3971,0
1622094439170,821351,,3979,0
1622094439170,821371,,3976,0
1622094439170,821392,,3969,0
1622094439170,821412,,3967,0
1622094439170,821432,,3969,0
1622094439170,821452,,3968,0
1622094439170,821472,,3967,0
1622094439170,821492,,3974,0
1622094439686,821512,,3972,0
1622094439686,821532,,3969,0
1622094439686,821552,,3967,0
1622094439686,821573,,3982,0
1622094439686,821593,,3978,0
1622094439686,821614,,3974,0
1622094439686,821634,,3970,0
1622094439686,821654,,3968,0
1622094439686,821674,,3975,0
1622094439686,821694,,3971,0
1622094439686,821714,,3967,0
1622094439686,821734,,3968,0
1622094439686,821754,,3967,0
1622094439686,821774,,3963,0
1622094439686,821795,,3967,0
1622094439686,821815,,3966,0
1622094439686,821836,,3972,0
1622094439686,821856,,3975,0
1622094439686,821876,,3974,0
1622094439686,821896,,3971,0
1622094439686,821916,,3974,0
1622094439686,821936,,3967,0
1622094439686,821956,,3969,0
1622094439686,821976,,3962,0
1622094439686,821996,,3962,0
1622094440210,822016,,3970,0
1622094440210,822036,,3971,0
1622094440210,822057,,3966,0
1622094440210,822077,,3971,0
1622094440210,822097,,3966,0
1622094440210,822117,,3972,0
1622094440210,822137,,3965,0
1622094440210,822157,,3967,0
1622094440210,822177,,3969,0
1622094440210,822197,,3966,0
1622094440210,822217,,3979,0
1622094440210,822238,,3970,0
1622094440210,822258,,3969,0
1622094440210,822279,,3977,0
1622094440210,822299,,3974,0
1622094440210,822319,,3972,0
1622094440210,822339,,3967,0
1622094440210,822359,,3965,0
1622094440210,822379,,3968,0
1622094440210,822399,,3970,0
1622094440210,822419,,3959,0
1622094440210,822439,,3967,0
1622094440210,822460,,3971,0
1622094440210,822480,,3968,0
1622094440210,822501,,3969,0
1622094440663,822521,,3967,0
1622094440663,822541,,3970,0
1622094440663,822561,,3967,0
1622094440663,822581,,3967,0
1622094440663,822601,,3962,0
1622094440663,822621,,3965,0
1622094440663,822641,,3969,0
1622094440663,822661,,3970,0
1622094440663,822682,,3964,0
1622094440663,822702,,3966,0
1622094440663,822723,,3967,0
1622094440663,822743,,3969,0
1622094440663,822763,,3966,0
1622094440663,822783,,3969,0
1622094440663,822803,,3969,0
1622094440663,822823,,3967,0
1622094440663,822843,,3965,0
1622094440663,822863,,3974,0
1622094440663,822883,,3966,0
1622094440663,822904,,3973,0
1622094440663,822924,,3969,0
1622094440663,822945,,3972,0
1622094440663,822965,,3971,0
1622094440663,822985,,3966,0
1622094440663,823005,,3970,0
1622094441166,823025,,3967,0
1622094441166,823045,,3966,0
1622094441166,823065,,3969,0
1622094441166,823085,,3969,0
1622094441166,823105,,3974,0
1622094441166,823126,,3977,0
1622094441166,823146,,3970,0
1622094441166,823167,,3967,0
1622094441166,823187,,3970,0
1622094441166,823207,,3967,0
1622094441166,823227,,3971,0
1622094441166,823247,,3973,0
1622094441166,823267,,3967,0
1622094441166,823287,,3967,0
1622094441166,823307,,3967,0
1622094441166,823327,,3966,0
1622094441166,823348,,3973,0
1622094441166,823368,,3966,0
1622094441166,823389,,3969,0
1622094441166,823409,,3973,0
1622094441166,823429,,3966,0
1622094441166,823449,,3965,0
1622094441166,823469,,3967,0
1622094441166,823489,,3970,0
1622094441166,823509,,3972,0
1622094441668,823529,,3970,0
1622094441668,823549,,3967,0
1622094441668,823570,,3978,0
1622094441668,823590,,3970,0
1622094441668,823611,,3969,0
1622094441668,823631,,3968,0
1622094441668,823651,,3971,0
1622094441668,823671,,3972,0
1622094441668,823691,,3971,0
1622094441668,823711,,3975,0
1622094441668,823731,,3968,0
1622094441668,823751,,3957,0
1622094441668,823771,,3965,0
1622094441668,823792,,3965,0
1622094441668,823812,,3967,0
1622094441668,823833,,3971,0
1622094441668,823853,,3965,0
1622094441668,823873,,3975,0
1622094441668,823893,,3969,0
1622094441668,823913,,3969,0
1622094441668,823933,,3998,0
1622094441668,823953,,3963,0
1622094441668,823973,,3968,0
1622094441668,823993,,3972,0
1622094441668,824013,,3969,0
1622094442173,824034,,3967,0
1622094442173,824055,,3968,0
1622094442173,824075,,3977,0
1622094442173,824095,,3970,0
1622094442173,824115,,3967,0
1622094442173,824135,,3965,0
1622094442173,824155,,3966,0
1622094442173,824175,,3970,0
1622094442173,824195,,3968,0
1622094442173,824215,,3962,0
1622094442173,824235,,3974,0
1622094442173,824255,,3973,0
1622094442173,824276,,3964,0
1622094442173,824296,,3973,0
1622094442173,824316,,3975,0
1622094442173,824336,,3968,0
1622094442173,824356,,3965,0
1622094442173,824376,,3965,0
1622094442173,824396,,3978,0
1622094442173,824416,,3973,0
1622094442173,824436,,3968,0
1622094442173,824457,,3972,0
1622094442173,824477,,3971,0
1622094442173,824498,,3971,0
1622094442173,824518,,3967,0
1622094442680,824539,,3968,0
1622094442680,824559,,3963,0
1622094442680,824579,,3967,0
1622094442680,824599,,3967,0
1622094442680,824619,,3970,0
1622094442680,824639,,3963,0
1622094442680,824659,,3965,0
1622094442680,824680,,3963,0
1622094442680,824700,,3966,0
1622094442680,824721,,3975,0
1622094442680,824741,,3969,0
1622094442680,824761,,3967,0
1622094442680,824781,,3963,0
1622094442680,824801,,3968,0
1622094442680,824821,,3973,0
1622094442680,824841,,3968,0
1622094442680,824861,,3968,0
1622094442680,824881,,3967,0
1622094442680,824902,,3969,0
1622094442680,824922,,3972,0
1622094442680,824943,,3974,0
1622094442680,824963,,3969,0
1622094442680,824983,,3969,0
1622094442680,825003,,3974,0
1622094442680,825023,,3973,0
1622094443972,825044,,3969,0
1622094443972,825064,,3968,0
1622094443972,825084,,3965,0
1622094443972,825104,,3975,0
1622094443972,825125,,3969,0
1622094443972,825145,,3967,0
1622094443972,825166,,3974,0
1622094443972,825186,,3967,0
1622094443972,825206,,3964,0
1622094443972,825226,,3970,0
1622094443972,825246,,3967,0
1622094443972,825266,,3969,0
1622094443972,825286,,3967,0
1622094443972,825306,,3975,0
1622094443972,825326,,3979,0
1622094443972,825347,,3975,0
1622094443972,825367,,3971,0
1622094443972,825388,,3967,0
1622094443972,825408,,3965,0
1622094443972,825428,,3968,0
1622094443972,825448,,3968,0
1622094443972,825468,,3968,0
1622094443972,825488,,3967,0
1622094443972,825508,,3970,0
1622094443972,825528,,3967,0
1622094446263,825549,,3972,0
1622094446263,825569,,3978,0
1622094446263,825589,,3973,0
1622094446263,825610,,3968,0
1622094446263,825630,,3973,0
1622094446263,825650,,3975,0
1622094446263,825670,,3968,0
1622094446263,825690,,3973,0
1622094446263,825710,,3969,0
1622094446263,825730,,3967,0
1622094446263,825750,,3967,0
1622094446263,825770,,3971,0
1622094446263,825791,,3964,0
1622094446263,825811,,3973,0
1622094446263,825832,,3970,0
1622094446263,825852,,3974,0
1622094446263,825872,,3977,0
1622094446263,825892,,3975,0
1622094446263,825912,,3970,0
1622094446263,825932,,3966,0
1622094446263,825952,,3963,0
1622094446263,825972,,3964,0
1622094446263,825992,,3970,0
1622094446263,826013,,3974,0
1622094446263,826033,,3971,0
1622094447088,826053,,3967,0
1622094447088,826073,,3968,0
1622094447088,826093,,3971,0
1622094447088,826113,,3973,0
1622094447088,826133,,3968,0
1622094447088,826153,,3966,0
1622094447088,826173,,3972,0
1622094447088,826193,,3971,0
1622094447088,826213,,3950,0
1622094447088,826234,,3967,0
1622094447088,826254,,3969,0
1622094447088,826275,,3967,0
1622094447088,826295,,3968,0
1622094447088,826315,,3974,0
1622094447088,826335,,3973,0
1622094447088,826355,,3975,0
1622094447088,826375,,3968,0
1622094447088,826395,,3969,0
1622094447088,826415,,3963,0
1622094447088,826435,,3967,0
1622094447088,826456,,3967,0
1622094447088,826476,,3971,0
1622094447088,826497,,3968,0
1622094447088,826517,,3967,0
1622094447088,826537,,3971,0
1622094447608,827564,,3966,0
1622094447608,827584,,3966,0
1622094447608,827605,,3971,0
1622094447608,827625,,3969,0
1622094447608,827645,,3973,0
1622094447608,827665,,3975,0
1622094447608,827685,,3973,0
1622094447608,827705,,3973,0
1622094447608,827725,,3979,0
1622094447608,827745,,3968,0
1622094447608,827765,,3967,0
1622094447608,827786,,3966,0
1622094447608,827806,,3967,0
1622094447608,827827,,3970,0
1622094447608,827847,,3968,0
1622094447608,827867,,3973,0
1622094447608,827887,,3969,0
1622094447608,827907,,3973,0
1622094447608,827927,,3973,0
1622094447608,827947,,3963,0
1622094447608,827967,,3978,0
1622094447608,827987,,3967,0
1622094447608,828008,,3970,0
1622094447608,828028,,3968,0
1622094447608,828049,,3967,0
1622094447637,828572,,3966,0
1622094447637,828592,,3970,0
1622094447637,828612,,3971,0
1622094447637,828632,,3973,0
1622094447637,828652,,3972,0
1622094447637,828672,,3970,0
1622094447637,828692,,3964,0
1622094447637,828713,,3965,0
1622094447637,828733,,3969,0
1622094447637,828753,,3965,0
1622094447637,828773,,3968,0
1622094447637,828793,,3969,0
1622094447637,828813,,3974,0
1622094447637,828833,,3969,0
1622094447637,828853,,3969,0
1622094447637,828873,,3966,0
1622094447637,828893,,3968,0
1622094447637,828913,,3967,0
1622094447637,828934,,3967,0
1622094447637,828954,,3965,0
1622094447637,828974,,3971,0
1622094447637,828994,,3970,0
1622094447637,829014,,3973,0
1622094447637,829034,,3971,0
1622094447637,829054,,3970,0
1622094448017,829074,,3968,0
1622094448017,829094,,3969,0
1622094448017,829114,,3971,0
1622094448017,829134,,3973,0
1622094448017,829155,,3972,0
1622094448017,829175,,3967,0
1622094448017,829195,,3971,0
1622094448017,829215,,3967,0
1622094448017,829235,,3969,0
1622094448017,829255,,3969,0
1622094448017,829275,,3967,0
1622094448017,829295,,3963,0
1622094448017,829315,,3970,0
1622094448017,829336,,3963,0
1622094448017,829356,,3966,0
1622094448017,829377,,3965,0
1622094448017,829397,,3966,0
1622094448017,829417,,3968,0
1622094448017,829437,,3967,0
1622094448017,829457,,3978,0
1622094448017,829477,,3969,0
1622094448017,829497,,3969,0
1622094448017,829517,,3969,0
1622094448017,829537,,3969,0
1622094448017,829558,,3969,0
1622094448235,829579,,3971,0
1622094448235,829600,,3973,0
1622094448235,829620,,3970,0
1622094448235,829640,,3975,0
1622094448235,829660,,3974,0
1622094448235,829680,,3971,0
1622094448235,829700,,3971,0
1622094448235,829720,,3967,0
1622094448235,829740,,3969,0
1622094448235,829760,,3968,0
1622094448235,829781,,3968,0
1622094448235,829801,,3969,0
1622094448235,829822,,3972,0
1622094448235,829842,,3974,0
1622094448235,829862,,3977,0
1622094448235,829882,,3971,0
1622094448235,829902,,3970,0
1622094448235,829922,,3963,0
1622094448235,829942,,3968,0
1622094448235,829962,,3967,0
1622094448235,829982,,3970,0
1622094448235,830003,,3973,0
1622094448235,830023,,3970,0
1622094448235,830044,,3970,0
1622094448235,830064,,3972,0
1622094448245,830084,,3967,0
1622094448245,830104,,3968,0
1622094448245,830124,,3973,0
1622094448245,830144,,3974,0
1622094448245,830164,,3973,0
1622094448245,830184,,3968,0
1622094448245,830204,,3964,0
1622094448245,830224,,3971,0
1622094448245,830244,,3966,0
1622094448245,830265,,3974,0
1622094448245,830285,,3974,0
1622094448245,830305,,3970,0
1622094448245,830325,,3972,0
1622094448245,830345,,3973,0
1622094448245,830365,,3969,0
1622094448245,830385,,3971,0
1622094448245,830405,,3966,0
1622094448245,830425,,3975,0
1622094448245,830445,,3966,0
1622094448245,830465,,3971,0
1622094448245,830486,,3972,0
1622094448245,830506,,3967,0
1622094448245,830526,,3969,0
1622094448245,830546,,3970,0
1622094448245,830566,,3969,0
1622094450509,830587,,3967,0
1622094450509,830607,,3971,0
1622094450509,830627,,3966,0
1622094450509,830647,,3974,0
1622094450509,830668,,3974,0
1622094450509,830688,,3971,0
1622094450509,830709,,3968,0
1622094450509,830729,,3968,0
1622094450509,830749,,3963,0
1622094450509,830769,,3971,0
1622094450509,830789,,3974,0
1622094450509,830809,,3971,0
1622094450509,830829,,3967,0
1622094450509,830849,,3968,0
1622094450509,830869,,3966,0
1622094450509,830890,,3966,0
1622094450509,830910,,3973,0
1622094450509,830931,,3967,0
1622094450509,830951,,3975,0
1622094450509,830971,,3971,0
1622094450509,830991,,3971,0
1622094450509,831011,,3974,0
1622094450509,831031,,3969,0
1622094450509,831051,,3967,0
1622094450509,831071,,3965,0
1622094452994,831092,,3968,0
1622094452994,831112,,3963,0
1622094452994,831132,,3971,0
1622094452994,831153,,3968,0
1622094452994,831173,,3968,0
1622094452994,831193,,3971,0
1622094452994,831213,,3973,0
1622094452994,831233,,3966,0
1622094452994,831253,,3967,0
1622094452994,831273,,3967,0
1622094452994,831293,,3975,0
1622094452994,831313,,3971,0
1622094452994,831334,,3968,0
1622094452994,831354,,3969,0
1622094452994,831375,,3966,0
1622094452994,831395,,3970,0
1622094452994,831415,,3978,0
1622094452994,831435,,3963,0
1622094452994,831455,,3977,0
1622094452994,831475,,3968,0
1622094452994,831495,,3969,0
1622094452994,831515,,3970,0
1622094452994,831535,,3967,0
1622094452994,831556,,3972,0
1622094452994,831576,,3973,0
1622094455919,831597,,3967,0
1622094455919,831617,,3966,0
1622094455919,831637,,3968,0
1622094455919,831657,,3973,0
1622094455919,831677,,3970,0
1622094455919,831697,,3974,0
1622094455919,831717,,3973,0
1622094455919,831737,,3965,0
1622094455919,831757,,3969,0
1622094455919,831778,,3966,0
1622094455919,831798,,3967,0
1622094455919,831819,,3975,0
1622094455919,831839,,3969,0
1622094455919,831859,,3963,0
1622094455919,831879,,3967,0
1622094455919,831899,,3972,0
1622094455919,831919,,3976,0
1622094455919,831939,,3970,0
1622094455919,831959,,3969,0
1622094455919,831979,,3966,0
1622094455919,832000,,3971,0
1622094455919,832020,,3975,0
1622094455919,832041,,3975,0
1622094455919,832061,,3967,0
1622094455919,832081,,3967,0
1622094457422,833110,,3967,0
1622094457422,833130,,3963,0
1622094457422,833151,,3969,0
1622094457422,833171,,3959,0
1622094457422,833191,,3967,0
1622094457422,833211,,3973,0
1622094457422,833231,,3969,0
1622094457422,833251,,3971,0
1622094457422,833271,,3968,0
1622094457422,833291,,3966,0
1622094457422,833311,,3971,0
1622094457422,833331,,3975,0
1622094457422,833351,,3965,0
1622094457422,833372,,3975,0
1622094457422,833392,,3963,0
1622094457422,833412,,3963,0
1622094457422,833432,,4003,0
1622094457422,833452,,3969,0
1622094457422,833472,,3973,0
1622094457422,833492,,3963,0
1622094457422,833512,,3967,0
1622094457422,833532,,3970,0
1622094457422,833552,,3971,0
1622094457422,833572,,3971,0
1622094457422,833593,,3966,0
1622094459834,836133,,3967,0
1622094459834,836153,,3969,0
1622094459834,836173,,3969,0
1622094459834,836193,,3973,0
1622094459834,836214,,3967,0
1622094459834,836234,,3966,0
1622094459834,836255,,3967,0
1622094459834,836275,,3969,0
1622094459834,836295,,3979,0
1622094459834,836315,,3971,0
1622094459834,836335,,3974,0
1622094459834,836355,,3967,0
1622094459834,836375,,3957,0
1622094459834,836395,,3964,0
1622094459834,836415,,3972,0
1622094459834,836436,,3969,0
1622094459834,836456,,3967,0
1622094459834,836477,,3967,0
1622094459834,836497,,3962,0
1622094459834,836517,,3962,0
1622094459834,836537,,3973,0
1622094459834,836557,,3970,0
1622094459834,836577,,3967,0
1622094459834,836597,,3971,0
1622094459834,836617,,3971,0
1622094460326,836637,,3961,0
1622094460326,836657,,3963,0
1622094460326,836677,,3975,0
1622094460326,836698,,3976,0
1622094460326,836718,,3969,0
1622094460326,836738,,3968,0
1622094460326,836758,,3967,0
1622094460326,836778,,3962,0
1622094460326,836798,,3963,0
1622094460326,836818,,3971,0
1622094460326,836838,,3974,0
1622094460326,836858,,3966,0
1622094460326,836878,,3965,0
1622094460326,836898,,3968,0
1622094460326,836919,,3968,0
1622094460326,836939,,3968,0
1622094460326,836959,,3964,0
1622094460326,836979,,3962,0
1622094460326,836999,,3966,0
1622094460326,837019,,3967,0
1622094460326,837039,,3975,0
1622094460326,837059,,3971,0
1622094460326,837079,,3971,0
1622094460326,837100,,3968,0
1622094460326,837120,,3967,0
1622094461128,837644,,3971,0
1622094461128,837664,,3967,0
1622094461128,837684,,3969,0
1622094461128,837704,,3968,0
1622094461128,837724,,3961,0
1622094461128,837744,,3970,0
1622094461128,837764,,3969,0
1622094461128,837784,,3969,0
1622094461128,837805,,3969,0
1622094461128,837825,,3975,0
1622094461128,837845,,3970,0
1622094461128,837865,,3969,0
1622094461128,837885,,3963,0
1622094461128,837905,,3961,0
1622094461128,837925,,3969,0
1622094461128,837945,,3970,0
1622094461128,837965,,3967,0
1622094461128,837986,,3963,0
1622094461128,838006,,3968,0
1622094461128,838027,,3968,0
1622094461128,838047,,3969,0
1622094461128,838067,,3970,0
1622094461128,838087,,3965,0
1622094461128,838107,,3968,0
1622094461128,838127,,3961,0
1622094461513,838148,,3963,0
1622094461513,838168,,3968,0
1622094461513,838188,,3968,0
1622094461513,838209,,3967,0
1622094461513,838229,,3967,0
1622094461513,838250,,3972,0
1622094461513,838270,,3969,0
1622094461513,838290,,3963,0
1622094461513,838310,,3965,0
1622094461513,838330,,3964,0
1622094461513,838350,,3970,0
1622094461513,838370,,3969,0
1622094461513,838390,,3970,0
1622094461513,838410,,3969,0
1622094461513,838430,,3967,0
1622094461513,838450,,3974,0
1622094461513,838471,,3969,0
1622094461513,838491,,3970,0
1622094461513,838511,,3969,0
1622094461513,838531,,3975,0
1622094461513,838551,,3974,0
1622094461513,838571,,3966,0
1622094461513,838591,,3962,0
1622094461513,838611,,3964,0
1622094461513,838631,,3968,0
1622094462134,838652,,3963,0
1622094462134,838672,,3965,0
1622094462134,838693,,3974,0
1622094462134,838713,,3968,0
1622094462134,838733,,3963,0
1622094462134,838753,,3964,0
1622094462134,838773,,3968,0
1622094462134,838793,,3973,0
1622094462134,838813,,3967,0
1622094462134,838833,,3959,0
1622094462134,838853,,3963,0
1622094462134,838874,,3970,0
1622094462134,838894,,3967,0
1622094462134,838915,,3962,0
1622094462134,838935,,3969,0
1622094462134,838955,,3959,0
1622094462134,838975,,3976,0
1622094462134,838995,,3973,0
1622094462134,839015,,3963,0
1622094462134,839035,,3972,0
1622094462134,839055,,3969,0
1622094462134,839075,,3970,0
1622094462134,839096,,3971,0
1622094462134,839116,,3958,0
1622094462134,839137,,3966,0
1622094462424,839158,,3971,0
1622094462424,839178,,3967,0
1622094462424,839198,,3971,0
1622094462424,839218,,3967,0
1622094462424,839238,,3967,0
1622094462424,839258,,3969,0
1622094462424,839278,,3973,0
1622094462424,839298,,3967,0
1622094462424,839319,,3966,0
1622094462424,839339,,3967,0
1622094462424,839360,,3968,0
1622094462424,839380,,3969,0
1622094462424,839400,,3970,0
1622094462424,839420,,3963,0
1622094462424,839440,,3966,0
1622094462424,839460,,3968,0
1622094462424,839480,,3973,0
1622094462424,839500,,3969,0
1622094462424,839520,,3966,0
1622094462424,839540,,3965,0
1622094462424,839560,,3966,0
1622094462424,839581,,3963,0
1622094462424,839601,,3970,0
1622094462424,839621,,3967,0
1622094462424,839641,,3971,0
1622094462553,840671,,3967,0
1622094462553,840692,,3969,0
1622094462553,840712,,3982,0
1622094462553,840732,,3979,0
1622094462553,840752,,3966,0
1622094462553,840772,,3962,0
1622094462553,840792,,3971,0
1622094462553,840812,,3979,0
1622094462553,840832,,3975,0
1622094462553,840852,,3973,0
1622094462553,840872,,3968,0
1622094462553,840892,,3965,0
1622094462553,840913,,3969,0
1622094462553,840933,,3970,0
1622094462553,840953,,3965,0
1622094462553,840973,,3970,0
1622094462553,840993,,3969,0
1622094462553,841013,,3974,0
1622094462553,841033,,3973,0
1622094462553,841053,,3973,0
1622094462553,841073,,3966,0
1622094462553,841094,,3971,0
1622094462553,841114,,3973,0
1622094462553,841135,,3974,0
1622094462553,841155,,3981,0
1622094462620,841175,,3967,0
1622094462620,841195,,3969,0
1622094462620,841215,,3977,0
1622094462620,841235,,3975,0
1622094462620,841255,,3971,0
1622094462620,841275,,3967,0
1622094462620,841295,,3969,0
1622094462620,841316,,3967,0
1622094462620,841336,,3975,0
1622094462620,841357,,3973,0
1622094462620,841377,,3975,0
1622094462620,841397,,3973,0
1622094462620,841417,,3973,0
1622094462620,841437,,3967,0
1622094462620,841457,,3975,0
1622094462620,841477,,3970,0
1622094462620,841497,,3968,0
1622094462620,841517,,3968,0
1622094462620,841537,,3977,0
1622094462620,841557,,3971,0
1622094462620,841578,,3967,0
1622094462620,841598,,3971,0
1622094462620,841618,,3971,0
1622094462620,841638,,3973,0
1622094462620,841658,,3971,0
1622094462737,843189,,3971,0
1622094462737,843209,,3966,0
1622094462737,843229,,3973,0
1622094462737,843249,,3973,0
1622094462737,843269,,3975,0
1622094462737,843289,,3971,0
1622094462737,843310,,3959,0
1622094462737,843330,,3968,0
1622094462737,843351,,3972,0
1622094462737,843371,,3974,0
1622094462737,843391,,3973,0
1622094462737,843411,,3969,0
1622094462737,843431,,3965,0
1622094462737,843451,,3980,0
1622094462737,843471,,3974,0
1622094462737,843491,,3974,0
1622094462737,843511,,3967,0
1622094462737,843532,,3968,0
1622094462737,843552,,3971,0
1622094462737,843573,,3972,0
1622094462737,843593,,3975,0
1622094462737,843613,,3966,0
1622094462737,843633,,3970,0
1622094462737,843653,,3964,0
1622094462737,843673,,3970,0
1622094462753,843693,,3977,0
1622094462753,843713,,3974,0
1622094462753,843733,,3977,0
1622094462753,843754,,3973,0
1622094462753,843774,,3971,0
1622094462753,843795,,3978,0
1622094462753,843815,,3970,0
1622094462753,843835,,3968,0
1622094462753,843855,,3975,0
1622094462753,843875,,3965,0
1622094462753,843895,,3973,0
1622094462753,843915,,3974,0
1622094462753,843935,,3965,0
1622094462753,843955,,3967,0
1622094462753,843976,,3965,0
1622094462753,843996,,3973,0
1622094462753,844017,,3969,0
1622094462753,844037,,3977,0
1622094462753,844057,,3977,0
1622094462753,844077,,3970,0
1622094462753,844097,,3972,0
1622094462753,844117,,3972,0
1622094462753,844137,,3969,0
1622094462753,844157,,3968,0
1622094462753,844177,,3969,0
1622094462755,844197,,3969,0
1622094462755,844217,,3967,0
1622094462755,844238,,3968,0
1622094462755,844258,,3973,0
1622094462755,844278,,3967,0
1622094462755,844298,,3975,0
1622094462755,844318,,3973,0
1622094462755,844338,,3971,0
1622094462755,844358,,3969,0
1622094462755,844378,,3967,0
1622094462755,844398,,3971,0
1622094462755,844419,,3974,0
1622094462755,844439,,3973,0
1622094462755,844459,,3971,0
1622094462755,844479,,3964,0
1622094462755,844499,,3967,0
1622094462755,844519,,3965,0
1622094462755,844539,,3977,0
1622094462755,844559,,3975,0
1622094462755,844579,,3970,0
1622094462755,844599,,3973,0
1622094462755,844619,,3969,0
1622094462755,844640,,3968,0
1622094462755,844660,,3967,0
1622094462755,844681,,3966,0
1622094462853,844702,,3967,0
1622094462853,844722,,3971,0
1622094462853,844742,,3970,0
1622094462853,844762,,3967,0
1622094462853,844782,,3961,0
1622094462853,844802,,3971,0
1622094462853,844822,,3968,0
1622094462853,844842,,3967,0
1622094462853,844863,,3967,0
1622094462853,844883,,3971,0
1622094462853,844904,,3974,0
1622094462853,844924,,3978,0
1622094462853,844944,,3971,0
1622094462853,844964,,3967,0
1622094462853,844984,,3973,0
1622094462853,845004,,3965,0
1622094462853,845024,,3969,0
1622094462853,845044,,3975,0
1622094462853,845064,,3974,0
1622094462853,845085,,3967,0
1622094462853,845105,,3971,0
1622094462853,845126,,3971,0
1622094462853,845146,,3973,0
1622094462853,845166,,3969,0
1622094462853,845186,,3966,0
1622094463347,845207,,3971,0
1622094463347,845227,,3967,0
1622094463347,845247,,3979,0
1622094463347,845267,,3974,0
1622094463347,845287,,3968,0
1622094463347,845307,,3970,0
1622094463347,845327,,3975,0
1622094463347,845348,,3970,0
1622094463347,845368,,3969,0
1622094463347,845388,,3962,0
1622094463347,845408,,3967,0
1622094463347,845428,,3967,0
1622094463347,845448,,3968,0
1622094463347,845468,,3967,0
1622094463347,845488,,3972,0
1622094463347,845508,,3965,0
1622094463347,845529,,3973,0
1622094463347,845549,,3975,0
1622094463347,845570,,3974,0
1622094463347,845590,,3971,0
1622094463347,845610,,3969,0
1622094463347,845630,,3971,0
1622094463347,845650,,3974,0
1622094463347,845670,,3967,0
1622094463347,845690,,3965,0
1622094464261,845711,,3965,0
1622094464261,845731,,3967,0
1622094464261,845752,,3973,0
1622094464261,845772,,3974,0
1622094464261,845793,,3969,0
1622094464261,845813,,3971,0
1622094464261,845833,,3975,0
1622094464261,845853,,3976,0
1622094464261,845873,,3966,0
1622094464261,845893,,3964,0
1622094464261,845913,,3965,0
1622094464261,845933,,3964,0
1622094464261,845953,,3970,0
1622094464261,845974,,3964,0
1622094464261,845994,,3969,0
1622094464261,846015,,3969,0
1622094464261,846035,,3966,0
1622094464261,846055,,3974,0
1622094464261,846075,,3969,0
1622094464261,846095,,3973,0
1622094464261,846115,,3971,0
1622094464261,846135,,3972,0
1622094464261,846155,,3975,0
1622094464261,846175,,3968,0
1622094464261,846196,,3974,0
1622094464363,846217,,3967,0
1622094464363,846238,,3969,0
1622094464363,846258,,3971,0
1622094464363,846278,,3973,0
1622094464363,846298,,3978,0
1622094464363,846318,,3974,0
1622094464363,846338,,3971,0
1622094464363,846358,,3973,0
1622094464363,846378,,3963,0
1622094464363,846398,,3977,0
1622094464363,846418,,3965,0
1622094464363,846438,,3961,0
1622094464363,846459,,3970,0
1622094464363,846479,,3968,0
1622094464363,846499,,3969,0
1622094464363,846519,,3975,0
1622094464363,846539,,3971,0
1622094464363,846559,,3973,0
1622094464363,846579,,3971,0
1622094464363,846599,,3971,0
1622094464363,846619,,3961,0
1622094464363,846640,,3969,0
1622094464363,846660,,3968,0
1622094464363,846681,,3965,0
1622094464363,846701,,3971,0
1622094464872,846722,,3969,0
1622094464872,846742,,3964,0
1622094464872,846762,,3977,0
1622094464872,846782,,3971,0
1622094464872,846802,,3975,0
1622094464872,846822,,3970,0
1622094464872,846842,,3967,0
1622094464872,846863,,3969,0
1622094464872,846883,,3971,0
1622094464872,846904,,3969,0
1622094464872,846924,,3975,0
1622094464872,846944,,3977,0
1622094464872,846964,,3971,0
1622094464872,846984,,3972,0
1622094464872,847004,,3968,0
1622094464872,847024,,3971,0
1622094464872,847044,,3971,0
1622094464872,847064,,3970,0
1622094464872,847085,,3978,0
1622094464872,847105,,3967,0
1622094464872,847126,,3972,0
1622094464872,847146,,3968,0
1622094464872,847166,,3969,0
1622094464872,847186,,3973,0
1622094464872,847206,,3968,0
1622094465369,847227,,3969,0
1622094465369,847247,,3971,0
1622094465369,847267,,3973,0
1622094465369,847287,,3971,0
1622094465369,847308,,3969,0
1622094465369,847328,,3967,0
1622094465369,847349,,3970,0
1622094465369,847369,,3967,0
1622094465369,847389,,3968,0
1622094465369,847409,,3968,0
1622094465369,847429,,3971,0
1622094465369,847449,,3973,0
1622094465369,847469,,3974,0
1622094465369,847489,,3965,0
1622094465369,847509,,3967,0
1622094465369,847530,,3974,0
1622094465369,847550,,3968,0
1622094465369,847571,,3971,0
1622094465369,847591,,3981,0
1622094465369,847611,,3975,0
1622094465369,847631,,3965,0
1622094465369,847651,,3971,0
1622094465369,847671,,3966,0
1622094465369,847691,,3969,0
1622094465369,847711,,3971,0
1622094465898,847732,,3972,0
1622094465898,847752,,3972,0
1622094465898,847772,,3969,0
1622094465898,847793,,3967,0
1622094465898,847813,,3964,0
1622094465898,847833,,3971,0
1622094465898,847853,,3967,0
1622094465898,847873,,3976,0
1622094465898,847893,,3969,0
1622094465898,847913,,3969,0
1622094465898,847933,,3967,0
1622094465898,847953,,3970,0
1622094465898,847974,,3974,0
1622094465898,847994,,3969,0
1622094465898,848015,,3968,0
1622094465898,848035,,3983,0
1622094465898,848055,,3973,0
1622094465898,848075,,3972,0
1622094465898,848095,,3978,0
1622094465898,848115,,3971,0
1622094465898,848135,,3968,0
1622094465898,848155,,3968,0
1622094465898,848175,,3968,0
1622094465898,848196,,3990,0
1622094465898,848216,,3971,0
1622094466375,848237,,3975,0
1622094466375,848257,,3968,0
1622094466375,848277,,3971,0
1622094466375,848297,,3971,0
1622094466375,848317,,3969,0
1622094466375,848337,,3968,0
1622094466375,848357,,3969,0
1622094466375,848377,,3974,0
1622094466375,848397,,3973,0
1622094466375,848417,,3975,0
1622094466375,848437,,3969,0
1622094466375,848458,,3966,0
1622094466375,848478,,3975,0
1622094466375,848498,,3971,0
1622094466375,848518,,3963,0
1622094466375,848538,,3978,0
1622094466375,848558,,3975,0
1622094466375,848578,,3970,0
1622094466375,848598,,3973,0
1622094466375,848618,,3970,0
1622094466375,848639,,3968,0
1622094466375,848659,,3971,0
1622094466375,848680,,3969,0
1622094466375,848700,,3971,0
1622094466375,848720,,3967,0
1622094466933,848741,,3973,0
1622094466933,848761,,3967,0
1622094466933,848781,,3984,0
1622094466933,848801,,3971,0
1622094466933,848821,,3974,0
1622094466933,848841,,3964,0
1622094466933,848861,,3969,0
1622094466933,848881,,3968,0
1622094466933,848902,,3967,0
1622094466933,848922,,3967,0
1622094466933,848942,,3966,0
1622094466933,848962,,3968,0
1622094466933,848982,,3978,0
1622094466933,849002,,3975,0
1622094466933,849022,,3974,0
1622094466933,849042,,3967,0
1622094466933,849062,,3967,0
1622094466933,849083,,3963,0
1622094466933,849103,,3969,0
1622094466933,849124,,3974,0
1622094466933,849144,,3967,0
1622094466933,849164,,3969,0
1622094466933,849184,,3984,0
1622094466933,849204,,3975,0
1622094466933,849224,,3962,0
1622094467555,849244,,3979,0
1622094467555,849264,,3968,0
1622094467555,849284,,3975,0
1622094467555,849305,,3970,0
1622094467555,849325,,3972,0
1622094467555,849346,,3971,0
1622094467555,849366,,3962,0
1622094467555,849386,,3967,0
1622094467555,849406,,3971,0
1622094467555,849426,,3969,0
1622094467555,849446,,3975,0
1622094467555,849466,,3978,0
1622094467555,849486,,3975,0
1622094467555,849506,,3973,0
1622094467555,849527,,3968,0
1622094467555,849547,,3978,0
1622094467555,849568,,3968,0
1622094467555,849588,,3967,0
1622094467555,849608,,3969,0
1622094467555,849628,,3975,0
1622094467555,849648,,3973,0
1622094467555,849668,,3972,0
1622094467555,849688,,3973,0
1622094467555,849708,,3968,0
1622094467555,849728,,3970,0
1622094468270,849749,,3967,0
1622094468270,849769,,3975,0
1622094468270,849790,,3978,0
1622094468270,849810,,3975,0
1622094468270,849830,,3974,0
1622094468270,849850,,3967,0
1622094468270,849870,,3968,0
1622094468270,849890,,3973,0
1622094468270,849910,,3968,0
1622094468270,849930,,3967,0
1622094468270,849950,,3967,0
1622094468270,849971,,3977,0
1622094468270,849991,,3975,0
1622094468270,850012,,3972,0
1622094468270,850032,,3970,0
1622094468270,850052,,3979,0
1622094468270,850072,,3967,0
1622094468270,850092,,3967,0
1622094468270,850112,,3967,0
1622094468270,850132,,3968,0
1622094468270,850152,,3973,0
1622094468270,850172,,3963,0
1622094468270,850192,,3969,0
1622094468270,850212,,3965,0
1622094468270,850233,,3970,0
1622094468393,850254,,3968,0
1622094468393,850274,,3967,0
1622094468393,850294,,3975,0
1622094468393,850314,,3973,0
1622094468393,850334,,3969,0
1622094468393,850354,,3974,0
1622094468393,850374,,3959,0
1622094468393,850394,,3973,0
1622094468393,850415,,3966,0
1622094468393,850435,,3968,0
1622094468393,850456,,3972,0
1622094468393,850476,,3967,0
1622094468393,850496,,3971,0
1622094468393,850516,,3971,0
1622094468393,850536,,3978,0
1622094468393,850556,,3971,0
1622094468393,850576,,3968,0
1622094468393,850596,,3966,0
1622094468393,850616,,3967,0
1622094468393,850637,,3974,0
1622094468393,850657,,3970,0
1622094468393,850678,,3967,0
1622094468393,850698,,3967,0
1622094468393,850718,,3969,0
1622094468393,850738,,3973,0
1622094468897,850759,,3967,0
1622094468897,850779,,3970,0
1622094468897,850799,,3973,0
1622094468897,850819,,3974,0
1622094468897,850839,,3974,0
1622094468897,850859,,3972,0
1622094468897,850879,,3972,0
1622094468897,850900,,3968,0
1622094468897,850920,,3966,0
1622094468897,850940,,3962,0
1622094468897,850960,,3972,0
1622094468897,850980,,3971,0
1622094468897,851000,,3979,0
1622094468897,851020,,3969,0
1622094468897,851040,,3971,0
1622094468897,851060,,3971,0
1622094468897,851081,,3970,0
1622094468897,851101,,3969,0
1622094468897,851122,,3969,0
1622094468897,851142,,3967,0
1622094468897,851162,,3966,0
1622094468897,851182,,3967,0
1622094468897,851202,,3969,0
1622094468897,851222,,3962,0
1622094468897,851242,,3968,0
1622094469570,851263,,3966,0
1622094469570,851283,,3970,0
1622094469570,851303,,3968,0
1622094469570,851323,,3968,0
1622094469570,851344,,3984,0
1622094469570,851364,,3968,0
1622094469570,851384,,3978,0
1622094469570,851404,,3967,0
1622094469570,851424,,3969,0
1622094469570,851444,,3969,0
1622094469570,851464,,3962,0
1622094469570,851484,,3968,0
1622094469570,851504,,3967,0
1622094469570,851525,,3974,0
1622094469570,851545,,3974,0
1622094469570,851566,,3979,0
1622094469570,851586,,3973,0
1622094469570,851606,,3967,0
1622094469570,851626,,3974,0
1622094469570,851646,,3974,0
1622094469570,851666,,3973,0
1622094469570,851686,,3974,0
1622094469570,851706,,3968,0
1622094469570,851726,,3965,0
1622094469570,851747,,3967,0
1622094470151,851768,,3965,0
1622094470151,851789,,3965,0
1622094470151,851809,,3972,0
1622094470151,851829,,3970,0
1622094470151,851849,,3973,0
1622094470151,851869,,3977,0
1622094470151,851889,,3968,0
1622094470151,851909,,3969,0
1622094470151,851929,,3971,0
1622094470151,851949,,3967,0
1622094470151,851970,,3967,0
1622094470151,851990,,3968,0
1622094470151,852011,,3969,0
1622094470151,852031,,3970,0
1622094470151,852051,,3979,0
1622094470151,852071,,3974,0
1622094470151,852091,,3969,0
1622094470151,852111,,3969,0
1622094470151,852131,,3966,0
1622094470151,852151,,3970,0
1622094470151,852171,,3967,0
1622094470151,852192,,3967,0
1622094470151,852212,,3963,0
1622094470151,852233,,3968,0
1622094470151,852253,,3972,0
1622094470416,852273,,3969,0
1622094470416,852293,,3967,0
1622094470416,852313,,3974,0
1622094470416,852333,,3971,0
1622094470416,852353,,3977,0
1622094470416,852373,,3970,0
1622094470416,852393,,3973,0
1622094470416,852414,,3971,0
1622094470416,852434,,3959,0
1622094470416,852455,,3975,0
1622094470416,852475,,3971,0
1622094470416,852495,,3964,0
1622094470416,852515,,3967,0
1622094470416,852535,,3967,0
1622094470416,852555,,4041,0
1622094470416,852575,,3974,0
1622094470416,852595,,3969,0
1622094470416,852615,,3970,0
1622094470416,852636,,3968,0
1622094470416,852656,,3969,0
1622094470416,852677,,3965,0
1622094470416,852697,,3969,0
1622094470416,852717,,3967,0
1622094470416,852737,,3966,0
1622094470416,852757,,3977,0
1622094471350,852777,,3967,0
1622094471350,852797,,3980,0
1622094471350,852817,,3971,0
1622094471350,852837,,3973,0
1622094471350,852858,,3972,0
1622094471350,852878,,3970,0
1622094471350,852899,,3967,0
1622094471350,852919,,3974,0
1622094471350,852939,,3984,0
1622094471350,852959,,3967,0
1622094471350,852979,,3963,0
1622094471350,852999,,3965,0
1622094471350,853019,,3969,0
1622094471350,853039,,3965,0
1622094471350,853059,,3974,0
1622094471350,853080,,3979,0
1622094471350,853100,,3968,0
1622094471350,853121,,3970,0
1622094471350,853141,,3967,0
1622094471350,853161,,3968,0
1622094471350,853181,,3963,0
1622094471350,853201,,3969,0
1622094471350,853221,,3966,0
1622094471350,853241,,3967,0
1622094471350,853261,,3972,0
1622094471557,853281,,3973,0
1622094471557,853301,,3967,0
1622094471557,853321,,3971,0
1622094471557,853342,,3967,0
1622094471557,853362,,3969,0
1622094471557,853382,,3966,0
1622094471557,853402,,3977,0
1622094471557,853422,,3969,0
1622094471557,853442,,3974,0
1622094471557,853462,,3969,0
1622094471557,853482,,3965,0
1622094471557,853502,,3968,0
1622094471557,853523,,3970,0
1622094471557,853543,,3967,0
1622094471557,853564,,3972,0
1622094471557,853584,,3971,0
1622094471557,853604,,3974,0
1622094471557,853624,,3973,0
1622094471557,853644,,3974,0
1622094471557,853664,,3966,0
1622094471557,853684,,3973,0
1622094471557,853704,,3969,0
1622094471557,853724,,3968,0
1622094471557,853745,,3969,0
1622094471557,853765,,3973,0
1622094471966,853786,,3970,0
1622094471966,853806,,3966,0
1622094471966,853826,,3965,0
1622094471966,853846,,3967,0
1622094471966,853866,,3969,0
1622094471966,853886,,3969,0
1622094471966,853906,,3970,0
1622094471966,853926,,3967,0
1622094471966,853946,,3969,0
1622094471966,853967,,3966,0
1622094471966,853987,,3967,0
1622094471966,854008,,3973,0
1622094471966,854028,,3967,0
1622094471966,854048,,3965,0
1622094471966,854068,,3968,0
1622094471966,854088,,3965,0
1622094471966,854108,,3966,0
1622094471966,854128,,3969,0
1622094471966,854148,,3968,0
1622094471966,854168,,3977,0
1622094471966,854188,,3975,0
1622094471966,854208,,3978,0
1622094471966,854229,,3970,0
1622094471966,854249,,3973,0
1622094471966,854269,,3966,0
1622094472921,854290,,3967,0
1622094472921,854310,,3966,0
1622094472921,854330,,3968,0
1622094472921,854350,,3971,0
1622094472921,854370,,3966,0
1622094472921,854390,,3971,0
1622094472921,854411,,3966,0
1622094472921,854431,,3981,0
1622094472921,854452,,3971,0
1622094472921,854472,,3966,0
1622094472921,854492,,3971,0
1622094472921,854512,,3966,0
1622094472921,854532,,3966,0
1622094472921,854552,,3962,0
1622094472921,854572,,3969,0
1622094472921,854592,,3971,0
1622094472921,854612,,3970,0
1622094472921,854633,,3971,0
1622094472921,854653,,3970,0
1622094472921,854674,,3961,0
1622094472921,854694,,3965,0
1622094472921,854714,,3965,0
1622094472921,854734,,3966,0
1622094472921,854754,,3967,0
1622094472921,854774,,3967,0
1622094473004,854794,,3972,0
1622094473004,854814,,3966,0
1622094473004,854834,,3974,0
1622094473004,854855,,3980,0
1622094473004,854875,,3975,0
1622094473004,854896,,3970,0
1622094473004,854916,,3970,0
1622094473004,854936,,3969,0
1622094473004,854956,,3963,0
1622094473004,854976,,3967,0
1622094473004,854996,,3966,0
1622094473004,855016,,3967,0
1622094473004,855036,,3979,0
1622094473004,855056,,3971,0
1622094473004,855077,,3969,0
1622094473004,855097,,3973,0
1622094473004,855118,,3971,0
1622094473004,855138,,3973,0
1622094473004,855158,,3970,0
1622094473004,855178,,3970,0
1622094473004,855198,,3967,0
1622094473004,855218,,3966,0
1622094473004,855238,,3967,0
1622094473004,855258,,3967,0
1622094473004,855278,,3969,0
1622094473507,855298,,3971,0
1622094473507,855318,,3972,0
1622094473507,855339,,3967,0
1622094473507,855359,,3967,0
1622094473507,855379,,3966,0
1622094473507,855399,,3975,0
1622094473507,855419,,3977,0
1622094473507,855439,,3970,0
1622094473507,855459,,3970,0
1622094473507,855479,,3968,0
1622094473507,855499,,3963,0
1622094473507,855520,,3966,0
1622094473507,855540,,3969,0
1622094473507,855561,,3969,0
1622094473507,855581,,3967,0
1622094473507,855601,,3963,0
1622094473507,855621,,3967,0
1622094473507,855641,,3975,0
1622094473507,855661,,3969,0
1622094473507,855681,,3974,0
1622094473507,855701,,3966,0
1622094473507,855721,,3966,0
1622094473507,855742,,3963,0
1622094473507,855762,,3967,0
1622094473507,855782,,3971,0
1622094474053,855802,,3967,0
1622094474053,855822,,3967,0
1622094474053,855842,,3975,0
1622094474053,855862,,3978,0
1622094474053,855882,,3972,0
1622094474053,855902,,3968,0
1622094474053,855922,,3965,0
1622094474053,855942,,3963,0
1622094474053,855963,,3967,0
1622094474053,855983,,3965,0
1622094474053,856004,,3966,0
1622094474053,856024,,3965,0
1622094474053,856044,,3967,0
1622094474053,856064,,3963,0
1622094474053,856084,,3967,0
1622094474053,856104,,3973,0
1622094474053,856124,,3962,0
1622094474053,856144,,3973,0
1622094474053,856164,,3971,0
1622094474053,856184,,3967,0
1622094474053,856204,,3968,0
1622094474053,856225,,3967,0
1622094474053,856245,,3965,0
1622094474053,856265,,3969,0
1622094474053,856285,,3974,0
1622094475305,856305,,3967,0
1622094475305,856325,,3968,0
1622094475305,856345,,3973,0
1622094475305,856365,,3969,0
1622094475305,856385,,3971,0
1622094475305,856406,,3968,0
1622094475305,856426,,3967,0
1622094475305,856447,,3965,0
1622094475305,856467,,3969,0
1622094475305,856487,,3967,0
1622094475305,856507,,3967,0
1622094475305,856527,,3970,0
1622094475305,856547,,3966,0
1622094475305,856567,,3971,0
1622094475305,856587,,3973,0
1622094475305,856607,,3971,0
1622094475305,856628,,3967,0
1622094475305,856648,,3970,0
1622094475305,856669,,3963,0
1622094475305,856689,,3965,0
1622094475305,856709,,3970,0
1622094475305,856729,,3968,0
1622094475305,856749,,3973,0
1622094475305,856769,,3975,0
1622094475305,856789,,3967,0
1622094477613,856809,,3963,0
1622094477613,856829,,3962,0
1622094477613,856850,,3974,0
1622094477613,856870,,3969,0
1622094477613,856891,,3971,0
1622094477613,856911,,3969,0
1622094477613,856931,,3961,0
1622094477613,856951,,3967,0
1622094477613,856971,,3969,0
1622094477613,856991,,3963,0
1622094477613,857011,,3971,0
1622094477613,857031,,3967,0
1622094477613,857051,,3969,0
1622094477613,857071,,3974,0
1622094477613,857091,,3973,0
1622094477613,857112,,3970,0
1622094477613,857132,,3967,0
1622094477613,857152,,3968,0
1622094477613,857172,,3969,0
1622094477613,857192,,3965,0
1622094477613,857212,,3967,0
1622094477613,857232,,3967,0
1622094477613,857252,,3969,0
1622094477613,857272,,3969,0
1622094477613,857293,,3965,0
1622094481467,857314,,3966,0
1622094481467,857335,,3968,0
1622094481467,857355,,3971,0
1622094481467,857375,,3971,0
1622094481467,857395,,3973,0
1622094481467,857415,,3977,0
1622094481467,857435,,3971,0
1622094481467,857455,,3972,0
1622094481467,857475,,3968,0
1622094481467,857495,,3949,0
1622094481467,857516,,3975,0
1622094481467,857536,,3973,0
1622094481467,857557,,3969,0
1622094481467,857577,,3967,0
1622094481467,857597,,3968,0
1622094481467,857617,,3970,0
1622094481467,857637,,3966,0
1622094481467,857657,,3976,0
1622094481467,857677,,3970,0
1622094481467,857697,,3967,0
1622094481467,857717,,3975,0
1622094481467,857738,,3970,0
1622094481467,857758,,3967,0
1622094481467,857779,,3966,0
1622094481467,857799,,3970,0
1622094483713,857820,,3965,0
1622094483713,857840,,3967,0
1622094483713,857860,,3971,0
1622094483713,857880,,3974,0
1622094483713,857900,,3968,0
1622094483713,857920,,3970,0
1622094483713,857940,,3974,0
1622094483713,857961,,3975,0
1622094483713,857981,,3967,0
1622094483713,858002,,3965,0
1622094483713,858022,,3970,0
1622094483713,858042,,3968,0
1622094483713,858062,,3968,0
1622094483713,858082,,3967,0
1622094483713,858102,,3967,0
1622094483713,858122,,3974,0
1622094483713,858142,,3973,0
1622094483713,858162,,3951,0
1622094483713,858183,,3967,0
1622094483713,858203,,3973,0
1622094483713,858224,,3973,0
1622094483713,858244,,3972,0
1622094483713,858264,,3961,0
1622094483713,858284,,3971,0
1622094483713,858304,,3969,0
1622094484271,858325,,3961,0
1622094484271,858345,,3969,0
1622094484271,858365,,3969,0
1622094484271,858385,,3969,0
1622094484271,858406,,3970,0
1622094484271,858426,,3975,0
1622094484271,858447,,3975,0
1622094484271,858467,,3973,0
1622094484271,858487,,3973,0
1622094484271,858507,,3974,0
1622094484271,858527,,3968,0
1622094484271,858547,,3970,0
1622094484271,858567,,3962,0
1622094484271,858587,,3974,0
1622094484271,858607,,3968,0
1622094484271,858628,,3968,0
1622094484271,858648,,3968,0
1622094484271,858669,,3966,0
1622094484271,858689,,3973,0
1622094484271,858709,,3970,0
1622094484271,858729,,3971,0
1622094484271,858749,,3975,0
1622094484271,858769,,3962,0
1622094484271,858789,,3968,0
1622094484271,858809,,3975,0
1622094485564,860340,,3973,0
1622094485564,860360,,3969,0
1622094485564,860380,,3973,0
1622094485564,860400,,3975,0
1622094485564,860420,,3971,0
1622094485564,860441,,3972,0
1622094485564,860461,,3971,0
1622094485564,860481,,3966,0
1622094485564,860501,,3973,0
1622094485564,860521,,3966,0
1622094485564,860541,,3966,0
1622094485564,860561,,3969,0
1622094485564,860581,,3970,0
1622094485564,860601,,3970,0
1622094485564,860621,,3967,0
1622094485564,860641,,3966,0
1622094485564,860662,,3967,0
1622094485564,860682,,3974,0
1622094485564,860702,,3971,0
1622094485564,860722,,3959,0
1622094485564,860742,,3969,0
1622094485564,860762,,3970,0
1622094485564,860782,,3973,0
1622094485564,860802,,3969,0
1622094485564,860822,,3965,0
1622094485586,860842,,3967,0
1622094485586,860862,,3967,0
1622094485586,860883,,3972,0
1622094485586,860903,,3974,0
1622094485586,860923,,3975,0
1622094485586,860943,,3967,0
1622094485586,860963,,3966,0
1622094485586,860983,,3973,0
1622094485586,861003,,3970,0
1622094485586,861023,,3969,0
1622094485586,861043,,3966,0
1622094485586,861064,,3966,0
1622094485586,861084,,3969,0
1622094485586,861105,,3975,0
1622094485586,861125,,3967,0
1622094485586,861145,,3967,0
1622094485586,861165,,3970,0
1622094485586,861185,,3974,0
1622094485586,861205,,3971,0
1622094485586,861225,,3966,0
1622094485586,861245,,3969,0
1622094485586,861265,,3966,0
1622094485586,861286,,3972,0
1622094485586,861306,,3969,0
1622094485586,861327,,3975,0
1622094485792,861347,,3963,0
1622094485792,861367,,3974,0
1622094485792,861387,,3971,0
1622094485792,861407,,3973,0
1622094485792,861427,,3971,0
1622094485792,861447,,3962,0
1622094485792,861467,,3967,0
1622094485792,861487,,3967,0
1622094485792,861507,,3974,0
1622094485792,861527,,3973,0
1622094485792,861548,,3973,0
