localTime,remoteTime,label,bvp,signalOK
1620713766888,129622,,1791,0
1620713766888,129642,,1793,0
1620713766888,129662,,1648,0
1620713766888,129682,,1599,0
1620713766888,129702,,1665,0
1620713766888,129722,,1637,0
1620713766888,129742,,1599,0
1620713766888,129762,,1535,0
1620713766888,129782,,1614,0
1620713766888,129802,,1758,0
1620713766888,129822,,2017,0
1620713766888,129842,,2349,0
1620713766888,129863,,2662,0
1620713766888,129883,,2962,0
1620713766888,129903,,3113,0
1620713766888,129923,,3067,0
1620713766888,129943,,2901,0
1620713766888,129963,,2667,0
1620713766888,129983,,2399,0
1620713766888,130003,,2323,0
1620713766888,130023,,2178,0
1620713766888,130043,,1996,0
1620713766888,130063,,1853,0
1620713766888,130084,,1678,0
1620713766888,130104,,1762,0
1620713767404,130124,,1719,0
1620713767404,130144,,1769,0
1620713767404,130164,,1840,0
1620713767404,130184,,1838,0
1620713767404,130204,,1881,0
1620713767404,130224,,1840,0
1620713767404,130244,,1715,0
1620713767404,130264,,1591,0
1620713767404,130284,,1409,0
1620713767404,130305,,1450,0
1620713767404,130325,,1474,0
1620713767404,130345,,1452,0
1620713767404,130365,,1424,0
1620713767404,130385,,1328,0
1620713767404,130405,,1423,0
1620713767404,130425,,1497,0
1620713767404,130445,,1495,0
1620713767404,130465,,1481,0
1620713767404,130485,,1456,0
1620713767404,130505,,1486,0
1620713767404,130526,,1504,0
1620713767404,130546,,1511,0
1620713767404,130566,,1511,0
1620713767404,130586,,1479,0
1620713767404,130606,,1507,0
1620713767898,130627,,1389,0
1620713767898,130647,,1461,0
1620713767898,130667,,1611,0
1620713767898,130687,,1824,0
1620713767898,130707,,2144,0
1620713767898,130727,,2516,0
1620713767898,130748,,2709,0
1620713767898,130768,,2771,0
1620713767898,130788,,2679,0
1620713767898,130808,,2576,0
1620713767898,130828,,2401,0
1620713767898,130848,,2221,0
1620713767898,130868,,2047,0
1620713767898,130888,,1854,0
1620713767898,130908,,1728,0
1620713767898,130929,,1785,0
1620713767898,130949,,1758,0
1620713767898,130970,,1733,0
1620713767898,130990,,1701,0
1620713767898,131010,,1770,0
1620713767898,131030,,1805,0
1620713767898,131050,,1822,0
1620713767898,131070,,1821,0
1620713767898,131090,,1759,0
1620713767898,131110,,1687,0
1620713768400,131130,,1695,0
1620713768400,131150,,1731,0
1620713768400,131170,,1745,0
1620713768400,131191,,1787,0
1620713768400,131211,,1759,0
1620713768400,131231,,1701,0
1620713768400,131251,,1641,0
1620713768400,131271,,1594,0
1620713768400,131291,,1573,0
1620713768400,131311,,1514,0
1620713768400,131331,,1651,0
1620713768400,131351,,1721,0
1620713768400,131371,,1717,0
1620713768400,131391,,1686,0
1620713768400,131411,,1590,0
1620713768400,131431,,1685,0
1620713768400,131451,,1728,0
1620713768400,131471,,1703,0
1620713768400,131491,,1698,0
1620713768400,131511,,1701,0
1620713768400,131531,,2000,0
1620713768400,131551,,2382,0
1620713768400,131571,,2694,0
1620713768400,131591,,2917,0
1620713768400,131611,,3010,0
1620713768918,131631,,2887,0
1620713768918,131651,,2795,0
1620713768918,131671,,2659,0
1620713768918,131691,,2543,0
1620713768918,131711,,2257,0
1620713768918,131731,,2042,1
1620713768918,131751,,1959,1
1620713768918,131771,,1811,1
1620713768918,131791,,1702,1
1620713768918,131811,,1584,1
1620713768918,131831,,1607,1
1620713768918,131852,,1776,1
1620713768918,131872,,1822,1
1620713768918,131892,,1829,1
1620713768918,131912,,1753,1
1620713768918,131932,,1699,1
1620713768918,131952,,1789,1
1620713768918,131972,,1757,1
1620713768918,131992,,1685,1
1620713768918,132012,,1579,1
1620713768918,132032,,1505,1
1620713768918,132052,,1625,1
1620713768918,132073,,1650,1
1620713768918,132093,,1632,1
1620713768918,132113,,1598,1
1620713769399,132133,,1554,1
1620713769399,132153,,1617,1
1620713769399,132173,,1701,1
1620713769399,132193,,1763,1
1620713769399,132213,,1809,1
1620713769399,132233,,1746,1
1620713769399,132253,,1691,1
1620713769399,132273,,1616,1
1620713769399,132294,,1557,1
1620713769399,132314,,1520,1
1620713769399,132334,,1466,1
1620713769399,132354,,1693,1
1620713769399,132374,,1950,1
1620713769399,132394,,2225,1
1620713769399,132414,,2518,1
1620713769399,132434,,2691,1
1620713769399,132454,,2956,1
1620713769399,132474,,3060,1
1620713769399,132494,,2931,1
1620713769399,132515,,2683,1
1620713769399,132535,,2441,1
1620713769399,132555,,2255,1
1620713769399,132575,,2083,1
1620713769399,132595,,1936,1
1620713769399,132615,,1836,1
1620713769902,132635,,1697,1
1620713769902,132655,,1726,1
1620713769902,132675,,1823,1
1620713769902,132695,,1942,1
1620713769902,132715,,1939,1
1620713769902,132736,,1825,1
1620713769902,132756,,1838,1
1620713769902,132776,,1898,1
1620713769902,132796,,1854,1
1620713769902,132816,,1777,1
1620713769902,132836,,1643,1
1620713769902,132856,,1591,1
1620713769902,132876,,1681,1
1620713769902,132896,,1669,1
1620713769902,132916,,1636,1
1620713769902,132936,,1563,1
1620713769902,132957,,1521,1
1620713769902,132977,,1666,1
1620713769902,132997,,1683,1
1620713769902,133017,,1663,1
1620713769902,133037,,1611,1
1620713769902,133057,,1643,1
1620713769902,133077,,1645,1
1620713769902,133097,,1634,1
1620713769902,133117,,1630,1
1620713770414,133138,,1534,1
1620713770414,133158,,1568,1
1620713770414,133179,,1671,1
1620713770414,133199,,1825,1
1620713770414,133219,,1983,1
1620713770414,133239,,2174,1
1620713770414,133259,,2480,1
1620713770414,133279,,2751,1
1620713770414,133299,,2911,1
1620713770414,133319,,2922,1
1620713770414,133339,,2781,1
1620713770414,133359,,2511,1
1620713770414,133379,,2393,1
1620713770414,133400,,2191,1
1620713770414,133420,,1948,1
1620713770414,133440,,1717,1
1620713770414,133460,,1501,1
1620713770414,133480,,1514,1
1620713770414,133500,,1535,1
1620713770414,133520,,1535,1
1620713770414,133540,,1554,1
1620713770414,133560,,1505,1
1620713770414,133580,,1637,1
1620713770414,133600,,1737,1
1620713770414,133621,,1726,1
1620713770906,133641,,1598,1
1620713770906,133661,,1602,1
1620713770906,133681,,1644,1
1620713770906,133701,,1742,1
1620713770906,133721,,1734,1
1620713770906,133741,,1690,1
1620713770906,133761,,1589,1
1620713770906,133781,,1633,1
1620713770906,133801,,1753,1
1620713770906,133821,,1781,1
1620713770906,133842,,1771,1
1620713770906,133862,,1693,1
1620713770906,133882,,1733,1
1620713770906,133902,,1837,1
1620713770906,133922,,1831,1
1620713770906,133942,,1791,1
1620713770906,133962,,1687,1
1620713770906,133982,,1664,1
1620713770906,134002,,1757,1
1620713770906,134022,,1753,1
1620713770906,134042,,1778,1
1620713770906,134063,,1860,1
1620713770906,134083,,2137,1
1620713770906,134103,,2503,1
1620713770906,134123,,2840,1
1620713771411,134143,,3070,1
1620713771411,134163,,3105,1
1620713771411,134183,,2959,1
1620713771411,134203,,2745,1
1620713771411,134223,,2465,1
1620713771411,134243,,2224,1
1620713771411,134263,,2022,1
1620713771411,134284,,1875,1
1620713771411,134304,,1778,1
1620713771411,134324,,1737,1
1620713771411,134344,,1765,1
1620713771411,134364,,1856,1
1620713771411,134384,,1824,1
1620713771411,134404,,1967,1
1620713771411,134424,,2010,1
1620713771411,134444,,1975,1
1620713771411,134464,,1897,1
1620713771411,134484,,1744,1
1620713771411,134505,,1770,1
1620713771411,134525,,1744,1
1620713771411,134545,,1658,1
1620713771411,134565,,1582,1
1620713771411,134585,,1514,1
1620713771411,134605,,1513,1
1620713771411,134625,,1521,1
1620713771913,134646,,1472,1
1620713771913,134666,,1559,1
1620713771913,134686,,1639,1
1620713771913,134706,,1744,1
1620713771913,134727,,1789,1
1620713771913,134747,,1731,1
1620713771913,134767,,1657,1
1620713771913,134787,,1509,1
1620713771913,134807,,1528,1
1620713771913,134827,,1584,1
1620713771913,134847,,1555,1
1620713771913,134867,,1587,1
1620713771913,134887,,1666,1
1620713771913,134907,,1950,1
1620713771913,134927,,2350,1
1620713771913,134948,,2608,1
1620713771913,134968,,2713,1
1620713771913,134988,,2640,1
1620713771913,135008,,2581,1
1620713771913,135028,,2574,1
1620713771913,135048,,2414,1
1620713771913,135068,,2238,1
1620713771913,135088,,1991,1
1620713771913,135108,,1856,1
1620713771913,135128,,1877,1
1620713772414,135148,,1746,1
1620713772414,135169,,1751,1
1620713772414,135189,,1776,1
1620713772414,135209,,1911,1
1620713772414,135229,,1875,1
1620713772414,135249,,1808,1
1620713772414,135269,,1741,1
1620713772414,135289,,1641,1
1620713772414,135309,,1553,1
1620713772414,135329,,1658,1
1620713772414,135349,,1669,1
1620713772414,135369,,1639,1
1620713772414,135390,,1567,1
1620713772414,135410,,1475,1
1620713772414,135430,,1594,1
1620713772414,135450,,1615,1
1620713772414,135470,,1591,1
1620713772414,135490,,1566,1
1620713772414,135510,,1578,1
1620713772414,135530,,1610,1
1620713772414,135550,,1616,1
1620713772414,135570,,1612,1
1620713772414,135590,,1584,1
1620713772414,135611,,1443,1
1620713772414,135631,,1504,1
1620713772916,135651,,1442,1
1620713772916,135671,,1481,1
1620713772916,135691,,1691,1
1620713772916,135711,,1893,1
1620713772916,135731,,2230,1
1620713772916,135751,,2508,1
1620713772916,135771,,2629,1
1620713772916,135791,,2621,1
1620713772916,135811,,2495,1
1620713772916,135832,,2337,1
1620713772916,135852,,2160,1
1620713772916,135872,,1986,1
1620713772916,135892,,1847,1
1620713772916,135912,,1724,1
1620713772916,135932,,1690,1
1620713772916,135952,,1686,1
1620713772916,135972,,1707,1
1620713772916,135992,,1753,1
1620713772916,136012,,1733,1
1620713772916,136032,,1778,1
1620713772916,136053,,1856,1
1620713772916,136073,,1890,1
1620713772916,136093,,1885,1
1620713772916,136113,,1890,1
1620713772916,136133,,1857,1
1620713773417,136153,,1664,1
1620713773417,136173,,1594,1
1620713773417,136193,,1587,1
1620713773417,136213,,1614,1
1620713773417,136233,,1549,1
1620713773417,136253,,1612,1
1620713773417,136274,,1563,1
1620713773417,136294,,1504,1
1620713773417,136314,,1429,1
1620713773417,136334,,1424,1
1620713773417,136354,,1600,1
1620713773417,136374,,1659,1
1620713773417,136394,,1662,1
1620713773417,136414,,1622,1
1620713773417,136434,,1579,1
1620713773417,136454,,1760,1
1620713773417,136474,,1918,1
1620713773417,136495,,2101,1
1620713773417,136515,,2282,1
1620713773417,136535,,2479,0
1620713773417,136555,,2585,0
1620713773417,136575,,2555,0
1620713773417,136595,,2431,0
1620713773417,136615,,2250,0
1620713773417,136635,,2018,0
1620713773938,136655,,1911,0
1620713773938,136675,,1872,0
1620713773938,136695,,1766,0
1620713773938,136716,,1866,0
1620713773938,136736,,1701,0
1620713773938,136756,,1718,0
1620713773938,136776,,1725,0
1620713773938,136796,,1693,0
1620713773938,136816,,1683,0
1620713773938,136836,,1683,0
1620713773938,136856,,1722,0
1620713773938,136876,,1711,0
1620713773938,136896,,1669,0
1620713773938,136916,,1622,0
1620713773938,136937,,1497,0
1620713773938,136957,,1547,0
1620713773938,136977,,1639,0
1620713773938,136997,,1651,0
1620713773938,137017,,1646,0
1620713773938,137037,,1567,0
1620713773938,137057,,1617,0
1620713773938,137077,,1718,0
1620713773938,137097,,1695,0
1620713773938,137117,,1628,0
1620713773938,137137,,1499,0
1620713774425,137157,,1450,0
1620713774425,137177,,1472,0
1620713774425,137197,,1507,0
1620713774425,137217,,1581,0
1620713774425,137237,,1617,0
1620713774425,137257,,1754,0
1620713774425,137277,,1905,0
1620713774425,137297,,2033,0
1620713774425,137317,,2249,0
1620713774425,137337,,2431,0
1620713774425,137357,,2466,0
1620713774425,137378,,2411,0
1620713774425,137398,,2301,0
1620713774425,137418,,2158,0
1620713774425,137438,,2000,0
1620713774425,137458,,1914,0
1620713774425,137478,,1708,0
1620713774425,137498,,1517,0
1620713774425,137518,,1401,0
1620713774425,137538,,1367,1
1620713774425,137558,,1419,1
1620713774425,137578,,1495,1
1620713774425,137599,,1569,1
1620713774425,137619,,1603,1
1620713774425,137639,,1600,1
1620713774927,137659,,1519,1
1620713774927,137679,,1567,1
1620713774927,137699,,1628,1
1620713774927,137719,,1765,1
1620713774927,137739,,1754,1
1620713774927,137759,,1618,1
1620713774927,137779,,1648,1
1620713774927,137799,,1639,1
1620713774927,137820,,1547,1
1620713774927,137840,,1456,1
1620713774927,137860,,1379,1
1620713774927,137880,,1359,1
1620713774927,137900,,1331,1
1620713774927,137920,,1324,1
1620713774927,137940,,1325,1
1620713774927,137960,,1328,1
1620713774927,137980,,1383,1
1620713774927,138000,,1424,1
1620713774927,138020,,1491,1
1620713774927,138041,,1635,1
1620713774927,138061,,1792,1
1620713774927,138081,,2061,1
1620713774927,138101,,2349,0
1620713774927,138121,,2547,0
1620713774927,138141,,2615,0
1620713775426,138161,,2555,0
1620713775426,138181,,2412,0
1620713775426,138201,,2245,0
1620713775426,138221,,2113,0
1620713775426,138241,,1886,0
1620713775426,138262,,1643,0
1620713775426,138282,,1546,0
1620713775426,138302,,1472,0
1620713775426,138322,,1459,0
1620713775426,138342,,1494,0
1620713775426,138362,,1531,0
1620713775426,138382,,1649,0
1620713775426,138402,,1711,0
1620713775426,138422,,1728,0
1620713775426,138442,,1712,0
1620713775426,138462,,1647,0
1620713775426,138482,,1617,0
1620713775426,138502,,1573,0
1620713775426,138522,,1527,0
1620713775426,138542,,1488,0
1620713775426,138562,,1446,0
1620713775426,138582,,1435,0
1620713775426,138602,,1454,0
1620713775426,138622,,1466,0
1620713775426,138642,,1487,0
1620713775929,138663,,1451,0
1620713775929,138683,,1529,0
1620713775929,138704,,1670,0
1620713775929,138724,,1797,0
1620713775929,138744,,1811,0
1620713775929,138764,,1851,0
1620713775929,138784,,1974,0
1620713775929,138804,,2241,0
1620713775929,138824,,2539,0
1620713775929,138844,,2817,0
1620713775929,138864,,3024,0
1620713775929,138884,,3065,0
1620713775929,138904,,2977,0
1620713775929,138925,,2743,0
1620713775929,138945,,2470,0
1620713775929,138965,,2198,0
1620713775929,138985,,1938,0
1620713775929,139005,,1754,0
1620713775929,139025,,1610,0
1620713775929,139045,,1529,0
1620713775929,139065,,1533,0
1620713775929,139085,,1600,0
1620713775929,139105,,1766,1
1620713775929,139125,,1904,1
1620713775929,139146,,2015,1
1620713776432,139166,,2000,1
1620713776432,139186,,2053,1
1620713776432,139206,,2117,1
1620713776432,139226,,2127,1
1620713776432,139246,,2001,1
1620713776432,139266,,1859,1
1620713776432,139286,,1709,1
1620713776432,139306,,1668,1
1620713776432,139326,,1629,1
1620713776432,139346,,1602,1
1620713776432,139367,,1600,1
1620713776432,139387,,1575,1
1620713776432,139407,,1633,1
1620713776432,139427,,1650,1
1620713776432,139447,,1648,1
1620713776432,139467,,1631,1
1620713776432,139487,,1590,1
1620713776432,139507,,1649,1
1620713776432,139527,,1776,1
1620713776432,139547,,1975,1
1620713776432,139567,,2241,1
1620713776432,139588,,2459,1
1620713776432,139608,,2672,0
1620713776432,139628,,2741,0
1620713776432,139648,,2672,0
1620713776934,139668,,2437,0
1620713776934,139688,,2298,0
1620713776934,139708,,2211,0
1620713776934,139728,,2160,0
1620713776934,139748,,2000,0
1620713776934,139768,,1844,0
1620713776934,139788,,1741,0
1620713776934,139809,,1680,0
1620713776934,139829,,1696,0
1620713776934,139849,,1722,0
1620713776934,139869,,1759,0
1620713776934,139889,,1795,0
1620713776934,139909,,1803,0
1620713776934,139929,,1821,0
1620713776934,139949,,1795,0
1620713776934,139969,,1753,0
1620713776934,139989,,1711,0
1620713776934,140009,,1659,0
1620713776934,140030,,1675,0
1620713776934,140050,,1679,0
1620713776934,140070,,1699,0
1620713776934,140090,,1712,0
1620713776934,140110,,1683,0
1620713776934,140130,,1675,0
1620713776934,140150,,1627,0
1620713777434,140170,,1495,0
1620713777434,140190,,1509,0
1620713777434,140210,,1581,0
1620713777434,140230,,1637,0
1620713777434,140251,,1522,0
1620713777434,140271,,1386,0
1620713777434,140291,,1276,0
1620713777434,140311,,1232,0
1620713777434,140331,,1391,0
1620713777434,140351,,1673,0
1620713777434,140371,,2011,0
1620713777434,140391,,2322,0
1620713777434,140411,,2494,0
1620713777434,140431,,2586,0
1620713777434,140451,,2498,0
1620713777434,140472,,2303,0
1620713777434,140492,,2097,0
1620713777434,140512,,1855,0
1620713777434,140532,,1744,0
1620713777434,140552,,1633,0
1620713777434,140572,,1527,0
1620713777434,140592,,1461,0
1620713777434,140612,,1415,1
1620713777434,140632,,1469,1
1620713777434,140652,,1545,1
1620713777938,140672,,1525,1
1620713777938,140693,,1626,1
1620713777938,140713,,1741,1
1620713777938,140733,,1842,1
1620713777938,140753,,1806,1
1620713777938,140773,,1723,1
1620713777938,140793,,1659,1
1620713777938,140813,,1627,1
1620713777938,140833,,1629,1
1620713777938,140853,,1669,1
1620713777938,140873,,1707,1
1620713777938,140893,,1755,1
1620713777938,140914,,1801,1
1620713777938,140934,,1823,1
1620713777938,140954,,1845,1
1620713777938,140974,,1849,1
1620713777938,140994,,1840,1
1620713777938,141014,,1831,1
1620713777938,141034,,1798,1
1620713777938,141054,,1801,1
1620713777938,141074,,1788,1
1620713777938,141094,,1767,1
1620713777938,141114,,1747,1
1620713777938,141135,,1715,1
1620713777938,141155,,1750,1
1620713778444,141176,,1751,1
1620713778444,141196,,1957,1
1620713778444,141216,,2284,1
1620713778444,141236,,2603,0
1620713778444,141256,,2815,0
1620713778444,141276,,2867,0
1620713778444,141296,,2790,0
1620713778444,141316,,2631,0
1620713778444,141336,,2403,0
1620713778444,141357,,2245,0
1620713778444,141377,,2078,0
1620713778444,141397,,1931,0
1620713778444,141417,,1808,0
1620713778444,141437,,1702,0
1620713778444,141457,,1713,0
1620713778444,141477,,1730,0
1620713778444,141497,,1763,0
1620713778444,141517,,1802,0
1620713778444,141537,,1787,0
1620713778444,141557,,1840,0
1620713778444,141578,,1831,0
1620713778444,141598,,1789,0
1620713778444,141618,,1742,0
1620713778444,141638,,1650,0
1620713778444,141658,,1657,0
1620713778945,141678,,1552,0
1620713778945,141698,,1574,0
1620713778945,141718,,1648,0
1620713778945,141738,,1715,0
1620713778945,141758,,1721,0
1620713778945,141778,,1684,0
1620713778945,141799,,1639,0
1620713778945,141819,,1611,0
1620713778945,141839,,1584,0
1620713778945,141859,,1601,0
1620713778945,141879,,1623,0
1620713778945,141899,,1646,0
1620713778945,141919,,1658,0
1620713778945,141939,,1659,0
1620713778945,141959,,1668,0
1620713778945,141979,,1685,0
1620713778945,141999,,1687,0
1620713778945,142020,,1681,0
1620713778945,142040,,1682,0
1620713778945,142060,,1727,0
1620713778945,142080,,1874,0
1620713778945,142100,,2096,0
1620713778945,142120,,2340,0
1620713778945,142140,,2559,0
1620713778945,142160,,2685,0
1620713779447,142180,,2649,0
1620713779447,142200,,2618,0
1620713779447,142220,,2512,0
1620713779447,142241,,2427,0
1620713779447,142261,,2190,0
1620713779447,142281,,2019,0
1620713779447,142301,,1815,0
1620713779447,142321,,1662,0
1620713779447,142341,,1556,0
1620713779447,142361,,1454,0
1620713779447,142381,,1488,0
1620713779447,142401,,1609,0
1620713779447,142421,,1742,0
1620713779447,142441,,1845,0
1620713779447,142462,,1962,0
1620713779447,142482,,2010,0
1620713779447,142502,,1933,0
1620713779447,142522,,1831,0
1620713779447,142542,,1742,0
1620713779447,142562,,1647,0
1620713779447,142582,,1648,0
1620713779447,142602,,1618,0
1620713779447,142622,,1585,0
1620713779447,142642,,1544,0
1620713779447,142662,,1456,0
1620713779955,142682,,1377,0
1620713779955,142702,,1397,0
1620713779955,142722,,1424,0
1620713779955,142742,,1552,0
1620713779955,142762,,1494,0
1620713779955,142782,,1491,0
1620713779955,142802,,1474,0
1620713779955,142822,,1447,0
1620713779955,142842,,1431,0
1620713779955,142862,,1425,0
1620713779955,142882,,1456,0
1620713779955,142903,,1490,0
1620713779955,142923,,1514,0
1620713779955,142943,,1535,0
1620713779955,142963,,1601,0
1620713779955,142983,,1730,0
1620713779955,143003,,1968,0
1620713779955,143023,,2212,0
1620713779955,143043,,2416,0
1620713779955,143063,,2529,0
1620713779955,143084,,2530,0
1620713779955,143104,,2461,0
1620713779955,143125,,2306,0
1620713779955,143145,,2125,0
1620713779955,143165,,1947,0
1620713780451,143185,,1723,0
1620713780451,143205,,1655,0
1620713780451,143225,,1648,0
1620713780451,143245,,1730,0
1620713780451,143265,,1701,0
1620713780451,143285,,1641,0
1620713780451,143305,,1645,0
1620713780451,143325,,1647,0
1620713780451,143346,,1650,0
1620713780451,143366,,1651,0
1620713780451,143386,,1627,0
1620713780451,143406,,1639,0
1620713780451,143426,,1629,0
1620713780451,143446,,1609,0
1620713780451,143466,,1588,0
1620713780451,143486,,1542,0
1620713780451,143506,,1549,0
1620713780451,143526,,1504,0
1620713780451,143546,,1468,0
1620713780451,143567,,1442,0
1620713780451,143587,,1411,0
1620713780451,143607,,1471,0
1620713780451,143627,,1490,0
1620713780451,143647,,1494,0
1620713780451,143667,,1488,0
1620713780957,143687,,1398,0
1620713780957,143707,,1436,0
1620713780957,143727,,1527,0
1620713780957,143747,,1605,0
1620713780957,143767,,1571,0
1620713780957,143788,,1454,0
1620713780957,143808,,1472,0
1620713780957,143828,,1509,0
1620713780957,143848,,1629,0
1620713780957,143868,,1840,0
1620713780957,143888,,2086,0
1620713780957,143908,,2359,0
1620713780957,143928,,2574,0
1620713780957,143948,,2659,0
1620713780957,143968,,2621,0
1620713780957,143988,,2486,0
1620713780957,144009,,2345,0
1620713780957,144029,,2208,0
1620713780957,144049,,2067,0
1620713780957,144069,,1932,0
1620713780957,144089,,1821,0
1620713780957,144109,,1739,0
1620713780957,144129,,1712,0
1620713780957,144149,,1685,0
1620713780957,144169,,1675,0
1620713781455,144189,,1583,0
1620713781455,144209,,1639,0
1620713781455,144230,,1709,0
1620713781455,144250,,1845,0
1620713781455,144270,,1839,0
1620713781455,144290,,1822,0
1620713781455,144310,,1788,0
1620713781455,144330,,1799,0
1620713781455,144350,,1778,0
1620713781455,144370,,1749,0
1620713781455,144390,,1719,0
1620713781455,144410,,1681,0
1620713781455,144430,,1701,0
1620713781455,144451,,1697,0
1620713781455,144471,,1680,0
1620713781455,144491,,1664,0
1620713781455,144511,,1606,0
1620713781455,144531,,1603,0
1620713781455,144551,,1583,0
1620713781455,144571,,1555,0
1620713781455,144591,,1535,0
1620713781455,144611,,1497,0
1620713781455,144631,,1525,0
1620713781455,144651,,1517,0
1620713781455,144672,,1499,0
1620713781958,144693,,1433,0
1620713781958,144713,,1559,0
1620713781958,144733,,1819,0
1620713781958,144753,,2183,0
1620713781958,144773,,2475,0
1620713781958,144793,,2733,0
1620713781958,144813,,2878,0
1620713781958,144833,,2974,0
1620713781958,144853,,2877,0
1620713781958,144873,,2646,0
1620713781958,144894,,2316,0
1620713781958,144914,,2006,0
1620713781958,144934,,1744,0
1620713781958,144954,,1552,0
1620713781958,144974,,1424,0
1620713781958,144994,,1394,0
1620713781958,145014,,1437,0
1620713781958,145034,,1607,0
1620713781958,145054,,1797,0
1620713781958,145074,,1968,0
1620713781958,145094,,2106,0
1620713781958,145115,,2153,0
1620713781958,145135,,2143,0
1620713781958,145155,,2066,0
1620713781958,145175,,1923,0
1620713782459,145195,,1704,0
1620713782459,145215,,1661,0
1620713782459,145235,,1730,0
1620713782459,145255,,1841,0
1620713782459,145275,,1825,0
1620713782459,145295,,1745,0
1620713782459,145315,,1647,0
1620713782459,145336,,1530,0
1620713782459,145356,,1475,0
1620713782459,145376,,1422,0
1620713782459,145396,,1389,0
1620713782459,145416,,1369,0
1620713782459,145436,,1371,0
1620713782459,145456,,1457,0
1620713782459,145476,,1581,0
1620713782459,145496,,1754,0
1620713782459,145516,,1952,0
1620713782459,145536,,2074,0
1620713782459,145557,,2223,0
1620713782459,145577,,2224,0
1620713782459,145597,,2174,0
1620713782459,145617,,2102,0
1620713782459,145637,,2025,0
1620713782459,145657,,2147,0
1620713782459,145677,,2320,0
1620713782962,145697,,2446,0
1620713782962,145717,,2678,0
1620713782962,145737,,2896,0
1620713782962,145757,,3024,0
1620713782962,145778,,2879,1
1620713782962,145798,,2629,1
1620713782962,145818,,2369,1
1620713782962,145838,,2127,1
1620713782962,145858,,1987,1
1620713782962,145878,,1841,1
1620713782962,145898,,1706,1
1620713782962,145918,,1600,1
1620713782962,145938,,1491,1
1620713782962,145958,,1483,1
1620713782962,145978,,1488,1
1620713782962,145999,,1519,1
1620713782962,146019,,1574,1
1620713782962,146039,,1633,1
1620713782962,146059,,1773,1
1620713782962,146079,,1920,1
1620713782962,146099,,2021,1
1620713782962,146119,,2064,1
1620713782962,146139,,2014,1
1620713782962,146159,,1927,1
1620713782962,146179,,1818,1
1620713783464,146199,,1600,1
1620713783464,146220,,1498,1
1620713783464,146240,,1459,1
1620713783464,146260,,1437,1
1620713783464,146280,,1363,1
1620713783464,146300,,1316,1
1620713783464,146320,,1343,1
1620713783464,146340,,1419,1
1620713783464,146360,,1478,1
1620713783464,146380,,1535,1
1620713783464,146400,,1527,1
1620713783464,146420,,1488,1
1620713783464,146441,,1408,1
1620713783464,146461,,1323,1
1620713783464,146481,,1298,1
1620713783464,146501,,1339,1
1620713783464,146521,,1487,1
1620713783464,146541,,1722,1
1620713783464,146561,,1948,1
1620713783464,146581,,2177,1
1620713783464,146601,,2294,1
1620713783464,146621,,2334,1
1620713783464,146641,,2310,1
1620713783464,146662,,2261,1
1620713783464,146682,,2311,1
1620713783966,146702,,2284,1
1620713783966,146722,,2347,1
1620713783966,146742,,2427,1
1620713783966,146762,,2425,1
1620713783966,146782,,2346,1
1620713783966,146802,,2192,1
1620713783966,146822,,2023,1
1620713783966,146842,,1889,1
1620713783966,146862,,1751,1
1620713783966,146882,,1769,1
1620713783966,146902,,1771,1
1620713783966,146922,,1771,1
1620713783966,146942,,1775,1
1620713783966,146962,,1748,1
1620713783966,146982,,1789,1
1620713783966,147002,,1804,1
1620713783966,147022,,1808,1
1620713783966,147042,,1819,1
1620713783966,147062,,1786,1
1620713783966,147082,,1790,1
1620713783966,147103,,1763,1
1620713783966,147123,,1701,1
1620713783966,147143,,1633,1
1620713783966,147163,,1568,1
1620713783966,147183,,1535,1
1620713784467,147203,,1483,1
1620713784467,147223,,1535,1
1620713784467,147243,,1662,1
1620713784467,147263,,1788,1
1620713784467,147283,,1875,1
1620713784467,147303,,2069,1
1620713784467,147324,,2256,1
1620713784467,147344,,2423,1
1620713784467,147364,,2548,1
1620713784467,147384,,2606,0
1620713784467,147404,,2607,0
1620713784467,147424,,2511,0
1620713784467,147444,,2375,0
1620713784467,147464,,2234,0
1620713784467,147484,,2066,0
1620713784467,147504,,1936,0
1620713784467,147524,,1797,0
1620713784467,147545,,1661,0
1620713784467,147565,,1567,0
1620713784467,147585,,1495,0
1620713784467,147605,,1535,0
1620713784467,147625,,1593,0
1620713784467,147645,,1634,0
1620713784467,147665,,1662,0
1620713784467,147685,,1642,0
1620713784971,147705,,1604,0
1620713784971,147725,,1668,0
1620713784971,147745,,1790,0
1620713784971,147766,,1884,0
1620713784971,147786,,1821,0
1620713784971,147806,,1797,0
1620713784971,147826,,1766,0
1620713784971,147846,,1749,0
1620713784971,147866,,1774,0
1620713784971,147886,,1793,0
1620713784971,147906,,1914,0
1620713784971,147926,,1985,0
1620713784971,147946,,2007,0
1620713784971,147966,,2000,0
1620713784971,147987,,1963,0
1620713784971,148007,,2067,0
1620713784971,148027,,2217,0
1620713784971,148047,,2391,0
1620713784971,148067,,2574,0
1620713784971,148087,,2683,0
1620713784971,148107,,2795,0
1620713784971,148127,,2843,0
1620713784971,148147,,2830,0
1620713784971,148167,,2754,0
1620713784971,148187,,2627,0
1620713785476,148207,,2417,0
1620713785476,148227,,2311,0
1620713785476,148247,,2227,0
1620713785476,148267,,2146,0
1620713785476,148287,,1921,0
1620713785476,148307,,1735,0
1620713785476,148327,,1712,0
1620713785476,148347,,1811,0
1620713785476,148367,,1827,0
1620713785476,148387,,1794,1
1620713785476,148407,,1680,1
1620713785476,148428,,1689,1
1620713785476,148448,,1731,1
1620713785476,148468,,1762,1
1620713785476,148488,,1775,1
1620713785476,148508,,1818,1
1620713785476,148528,,1847,1
1620713785476,148548,,1803,1
1620713785476,148568,,1767,1
1620713785476,148588,,1751,1
1620713785476,148608,,1744,1
1620713785476,148628,,1802,1
1620713785476,148649,,1842,1
1620713785476,148669,,1919,1
1620713785476,148689,,2066,1
1620713785974,148710,,2259,1
1620713785974,148730,,2608,0
1620713785974,148750,,2958,0
1620713785974,148770,,3370,0
1620713785974,148790,,3394,0
1620713785974,148810,,3151,0
1620713785974,148830,,2917,0
1620713785974,148850,,2659,0
1620713785974,148871,,2404,0
1620713785974,148891,,2224,0
1620713785974,148911,,2033,0
1620713785974,148931,,1942,0
1620713785974,148951,,1837,0
1620713785974,148971,,1752,0
1620713785974,148991,,1709,0
1620713785974,149011,,1675,0
1620713785974,149031,,1737,0
1620713785974,149051,,1773,0
1620713785974,149071,,1775,0
1620713785974,149092,,1751,0
1620713785974,149112,,1680,0
1620713785974,149132,,1697,0
1620713785974,149152,,1692,0
1620713785974,149172,,1696,0
1620713785974,149192,,1716,0
1620713786491,149212,,1663,0
1620713786491,149232,,1719,0
1620713786491,149252,,1803,0
1620713786491,149272,,1855,0
1620713786491,149292,,1766,0
1620713786491,149313,,1645,0
1620713786491,149333,,1600,0
1620713786491,149353,,1690,0
1620713786491,149373,,1909,0
1620713786491,149393,,2235,0
1620713786491,149413,,2582,0
1620713786491,149433,,2869,0
1620713786491,149453,,3058,0
1620713786491,149473,,3040,0
1620713786491,149493,,2859,0
1620713786491,149513,,2613,0
1620713786491,149534,,2352,0
1620713786491,149554,,2190,0
1620713786491,149574,,2045,0
1620713786491,149594,,1954,0
1620713786491,149614,,1904,0
1620713786491,149634,,1873,0
1620713786491,149654,,1919,0
1620713786491,149674,,1961,0
1620713786491,149694,,1997,0
1620713786983,149715,,1946,0
1620713786983,149735,,1976,1
1620713786983,149756,,2041,1
1620713786983,149776,,2077,1
1620713786983,149796,,1971,1
1620713786983,149816,,1854,1
1620713786983,149836,,1704,1
1620713786983,149856,,1674,1
1620713786983,149876,,1616,1
1620713786983,149896,,1534,1
1620713786983,149916,,1472,1
1620713786983,149936,,1386,1
1620713786983,149956,,1391,1
1620713786983,149977,,1356,1
1620713786983,149997,,1322,1
1620713786983,150017,,1299,1
1620713786983,150037,,1306,1
1620713786983,150057,,1522,1
1620713786983,150077,,1837,1
1620713786983,150097,,2221,1
1620713786983,150117,,2583,1
1620713786983,150137,,2797,1
1620713786983,150157,,2926,0
1620713786983,150177,,2835,0
1620713786983,150198,,2595,0
1620713787483,150218,,2214,0
1620713787483,150238,,1942,0
1620713787483,150258,,1750,0
1620713787483,150278,,1664,0
1620713787483,150298,,1465,0
1620713787483,150318,,1277,0
1620713787483,150338,,1131,0
1620713787483,150358,,1053,0
1620713787483,150378,,1055,0
1620713787483,150398,,1082,0
1620713787483,150419,,1141,0
1620713787483,150439,,1213,0
1620713787483,150459,,1296,0
1620713787483,150479,,1385,0
1620713787483,150499,,1437,0
1620713787483,150519,,1473,0
1620713787483,150539,,1488,0
1620713787483,150559,,1479,0
1620713787483,150579,,1489,0
1620713787483,150599,,1477,0
1620713787483,150619,,1461,0
1620713787483,150640,,1440,0
1620713787483,150660,,1404,0
1620713787483,150680,,1445,0
1620713787483,150700,,1451,0
1620713787988,150720,,1396,0
1620713787988,150740,,1535,0
1620713787988,150760,,1836,0
1620713787988,150780,,2266,0
1620713787988,150800,,2621,0
1620713787988,150820,,2896,0
1620713787988,150840,,3070,0
1620713787988,150861,,3040,0
1620713787988,150881,,2912,0
1620713787988,150901,,2655,0
1620713787988,150921,,2346,0
1620713787988,150941,,2034,0
1620713787988,150961,,1735,0
1620713787988,150981,,1553,0
1620713787988,151001,,1403,0
1620713787988,151021,,1299,0
1620713787988,151041,,1260,0
1620713787988,151061,,1249,0
1620713787988,151082,,1360,0
1620713787988,151102,,1456,0
1620713787988,151122,,1530,0
1620713787988,151142,,1583,0
1620713787988,151162,,1559,1
1620713787988,151182,,1595,1
1620713787988,151202,,1578,1
1620713788487,151222,,1457,1
1620713788487,151242,,1471,1
1620713788487,151262,,1511,1
1620713788487,151282,,1616,1
1620713788487,151303,,1583,1
1620713788487,151323,,1520,1
1620713788487,151343,,1456,1
1620713788487,151363,,1379,1
1620713788487,151383,,1373,1
1620713788487,151403,,1371,1
1620713788487,151423,,1397,1
1620713788487,151443,,1511,1
1620713788487,151463,,1726,1
1620713788487,151483,,2026,1
1620713788487,151503,,2353,1
1620713788487,151524,,2618,1
1620713788487,151544,,2774,1
1620713788487,151564,,2800,1
1620713788487,151584,,2688,1
1620713788487,151604,,2557,1
1620713788487,151624,,2363,1
1620713788487,151644,,2159,1
1620713788487,151664,,1958,1
1620713788487,151684,,1775,1
1620713788487,151704,,1654,1
1620713788989,151724,,1456,1
1620713788989,151745,,1433,1
1620713788989,151765,,1517,1
1620713788989,151785,,1605,1
1620713788989,151805,,1629,1
1620713788989,151825,,1614,1
1620713788989,151845,,1593,1
1620713788989,151865,,1566,1
1620713788989,151885,,1516,1
1620713788989,151905,,1519,1
1620713788989,151925,,1493,1
1620713788989,151945,,1457,1
1620713788989,151966,,1422,1
1620713788989,151986,,1371,1
1620713788989,152006,,1392,1
1620713788989,152026,,1389,1
1620713788989,152046,,1385,1
1620713788989,152066,,1371,1
1620713788989,152086,,1321,1
1620713788989,152106,,1358,1
1620713788989,152126,,1366,1
1620713788989,152146,,1424,1
1620713788989,152166,,1583,1
1620713788989,152187,,1803,1
1620713788989,152207,,2146,1
1620713789505,152227,,2368,1
1620713789505,152247,,2599,1
1620713789505,152267,,2761,1
1620713789505,152287,,2771,1
1620713789505,152307,,2670,1
1620713789505,152327,,2486,1
1620713789505,152347,,2267,1
1620713789505,152367,,2061,1
1620713789505,152387,,1829,1
1620713789505,152408,,1689,1
1620713789505,152428,,1569,1
1620713789505,152448,,1465,1
1620713789505,152468,,1403,1
1620713789505,152488,,1381,1
1620713789505,152508,,1413,1
1620713789505,152528,,1468,1
1620713789505,152548,,1502,1
1620713789505,152568,,1517,1
1620713789505,152588,,1515,1
1620713789505,152608,,1503,1
1620713789505,152629,,1501,1
1620713789505,152649,,1467,1
1620713789505,152669,,1440,1
1620713789505,152689,,1419,1
1620713789505,152709,,1399,1
1620713789996,152729,,1346,1
1620713789996,152749,,1382,1
1620713789996,152769,,1477,1
1620713789996,152789,,1562,1
1620713789996,152809,,1504,1
1620713789996,152829,,1467,1
1620713789996,152850,,1449,1
1620713789996,152870,,1513,1
1620713789996,152890,,1701,1
1620713789996,152910,,1950,1
1620713789996,152930,,2303,1
1620713789996,152950,,2596,1
1620713789996,152970,,2783,1
1620713789996,152990,,2850,1
1620713789996,153010,,2777,1
1620713789996,153030,,2697,1
1620713789996,153050,,2545,1
1620713789996,153071,,2353,1
1620713789996,153091,,2167,1
1620713789996,153111,,1965,1
1620713789996,153131,,1840,1
1620713789996,153151,,1729,1
1620713789996,153171,,1658,1
1620713789996,153191,,1630,1
1620713789996,153211,,1607,1
1620713790513,153231,,1616,1
1620713790513,153251,,1701,1
1620713790513,153271,,1812,1
1620713790513,153292,,1804,1
1620713790513,153312,,1749,1
1620713790513,153332,,1713,1
1620713790513,153352,,1743,1
1620713790513,153372,,1648,1
1620713790513,153392,,1535,1
1620713790513,153412,,1433,1
1620713790513,153432,,1425,1
1620713790513,153452,,1433,1
1620713790513,153472,,1447,1
1620713790513,153492,,1465,1
1620713790513,153513,,1473,1
1620713790513,153533,,1518,1
1620713790513,153553,,1565,1
1620713790513,153573,,1660,1
1620713790513,153593,,1842,1
1620713790513,153613,,2115,1
1620713790513,153633,,2399,1
1620713790513,153653,,2690,1
1620713790513,153673,,2862,1
1620713790513,153693,,2896,1
1620713790513,153713,,2818,1
1620713790998,153734,,2576,1
1620713790998,153754,,2433,1
1620713790998,153774,,2322,1
1620713790998,153794,,2244,1
1620713790998,153814,,2031,1
1620713790998,153834,,1793,1
1620713790998,153854,,1632,1
1620713790998,153874,,1507,1
1620713790998,153894,,1445,1
1620713790998,153914,,1442,1
1620713790998,153934,,1452,1
1620713790998,153955,,1525,1
1620713790998,153975,,1567,1
1620713790998,153995,,1579,1
1620713790998,154015,,1571,1
1620713790998,154035,,1529,1
1620713790998,154055,,1526,1
1620713790998,154075,,1493,1
1620713790998,154095,,1456,1
1620713790998,154115,,1424,1
1620713790998,154135,,1377,1
1620713790998,154155,,1409,1
1620713790998,154176,,1421,1
1620713790998,154196,,1434,1
1620713790998,154216,,1455,1
1620713799039,161774,,2320,1
1620713799039,161794,,2239,1
1620713799039,161814,,2133,1
1620713799039,161834,,2032,1
1620713799039,161854,,1851,1
1620713799039,161874,,1701,1
1620713799039,161894,,1595,1
1620713799039,161915,,1489,1
1620713799039,161935,,1493,1
1620713799039,161955,,1477,1
1620713799039,161975,,1474,1
1620713799039,161995,,1482,1
1620713799039,162015,,1459,1
1620713799039,162035,,1525,1
1620713799039,162055,,1543,1
1620713799039,162075,,1498,1
1620713799039,162095,,1424,1
1620713799039,162115,,1307,1
1620713799039,162136,,1265,1
1620713799039,162156,,1221,1
1620713799039,162176,,1183,1
1620713799039,162196,,1165,1
1620713799039,162216,,1186,1
1620713799039,162236,,1262,1
1620713799039,162256,,1360,1
1620713799546,162276,,1361,1
1620713799546,162296,,1456,1
1620713799546,162316,,1595,1
1620713799546,162336,,1766,1
1620713799546,162357,,2004,0
1620713799546,162377,,2257,0
1620713799546,162397,,2559,0
1620713799546,162417,,2864,0
1620713799546,162437,,3079,0
1620713799546,162457,,3221,0
1620713799546,162477,,3147,0
1620713799546,162497,,2960,0
1620713799546,162517,,2738,0
1620713799546,162537,,2512,0
1620713799546,162557,,2359,0
1620713799546,162578,,2192,0
1620713799546,162598,,2065,0
1620713799546,162618,,1976,0
1620713799546,162638,,1930,0
1620713799546,162658,,1974,0
1620713799546,162678,,2018,0
1620713799546,162698,,2046,0
1620713799546,162718,,2067,0
1620713799546,162738,,2034,0
1620713799546,162758,,2045,0
1620713800044,162778,,1918,0
1620713800044,162799,,1890,0
1620713800044,162819,,1881,0
1620713800044,162839,,1897,0
1620713800044,162859,,1843,0
1620713800044,162879,,1729,0
1620713800044,162899,,1616,0
1620713800044,162919,,1527,0
1620713800044,162939,,1445,0
1620713800044,162959,,1499,0
1620713800044,162979,,1555,0
1620713800044,162999,,1637,0
1620713800044,163020,,1729,0
1620713800044,163040,,1812,0
1620713800044,163060,,2032,0
1620713800044,163080,,2258,0
1620713800044,163100,,2475,0
1620713800044,163120,,2647,0
1620713800044,163140,,2686,0
1620713800044,163160,,2658,0
1620713800044,163180,,2500,0
1620713800044,163200,,2295,0
1620713800044,163220,,2089,0
1620713800044,163241,,1904,0
1620713800044,163261,,1799,0
1620713800549,163282,,1683,0
1620713800549,163302,,1716,0
1620713800549,163322,,1842,0
1620713800549,163342,,1962,0
1620713800549,163362,,1978,0
1620713800549,163382,,1968,0
1620713800549,163402,,1936,0
1620713800549,163422,,1907,0
1620713800549,163442,,1873,1
1620713800549,163462,,1833,1
1620713800549,163482,,1811,1
1620713800549,163502,,1784,1
1620713800549,163522,,1756,1
1620713800549,163542,,1732,1
1620713800549,163562,,1699,1
1620713800549,163582,,1702,1
1620713800549,163602,,1679,1
1620713800549,163622,,1654,1
1620713800549,163642,,1642,1
1620713800549,163662,,1623,1
1620713800549,163683,,1665,1
1620713800549,163703,,1682,1
1620713800549,163723,,1712,1
1620713800549,163743,,1779,1
1620713800549,163763,,1893,1
1620713801051,163784,,2066,1
1620713801051,163804,,2355,1
1620713801051,163824,,2695,0
1620713801051,163844,,2895,0
1620713801051,163864,,2817,0
1620713801051,163884,,2671,0
1620713801051,163905,,2438,0
1620713801051,163925,,2214,0
1620713801051,163945,,2020,0
1620713801051,163965,,1835,0
1620713801051,163985,,1761,0
1620713801051,164005,,1694,0
1620713801051,164025,,1648,0
1620713801051,164045,,1631,0
1620713801051,164065,,1601,0
1620713801051,164085,,1616,0
1620713801051,164105,,1715,0
1620713801051,164126,,1815,0
1620713801051,164146,,1930,0
1620713801051,164166,,1865,0
1620713801051,164186,,1815,0
1620713801051,164206,,1744,0
1620713801051,164226,,1673,0
1620713801051,164246,,1616,0
1620713801051,164266,,1566,0
1620713801555,164286,,1519,0
1620713801555,164306,,1586,0
1620713801555,164326,,1670,0
1620713801555,164347,,1798,0
1620713801555,164367,,1762,0
1620713801555,164387,,1634,0
1620713801555,164407,,1648,0
1620713801555,164427,,1765,0
1620713801555,164447,,1994,0
1620713801555,164467,,2199,0
1620713801555,164487,,2339,0
1620713801555,164507,,2590,0
1620713801555,164527,,2758,0
1620713801555,164547,,2937,0
1620713801555,164568,,2789,0
1620713801555,164588,,2476,0
1620713801555,164608,,2285,0
1620713801555,164628,,2123,0
1620713801555,164648,,2046,0
1620713801555,164668,,1883,0
1620713801555,164688,,1705,0
1620713801555,164708,,1619,0
1620713801555,164728,,1573,0
1620713801555,164748,,1569,0
1620713801555,164768,,1605,0
1620713802054,164788,,1579,0
1620713802054,164808,,1651,0
1620713802054,164828,,1765,1
1620713802054,164848,,1872,1
1620713802054,164868,,1824,1
1620713802054,164888,,1706,1
1620713802054,164908,,1658,1
1620713802054,164928,,1591,1
1620713802054,164948,,1547,1
1620713802054,164968,,1516,1
1620713802054,164988,,1472,1
1620713802054,165009,,1520,1
1620713802054,165029,,1542,1
1620713802054,165049,,1552,1
1620713802054,165069,,1549,1
1620713802054,165089,,1515,1
1620713802054,165109,,1619,1
1620713802054,165129,,1781,1
1620713802054,165149,,2018,1
1620713802054,165169,,2304,1
1620713802054,165189,,2530,1
1620713802054,165209,,2741,0
1620713802054,165230,,2785,0
1620713802054,165250,,2688,0
1620713802054,165270,,2515,0
1620713802556,165290,,2251,0
1620713802556,165310,,2080,0
1620713802556,165330,,2000,0
1620713802556,165350,,1938,0
1620713802556,165370,,1799,0
1620713802556,165390,,1664,0
1620713802556,165410,,1589,0
1620713802556,165430,,1582,0
1620713802556,165451,,1591,0
1620713802556,165471,,1616,0
1620713802556,165491,,1650,0
1620713802556,165511,,1670,0
1620713802556,165531,,1703,0
1620713802556,165551,,1705,0
1620713802556,165571,,1677,0
1620713802556,165591,,1637,0
1620713802556,165611,,1590,0
1620713802556,165631,,1584,0
1620713802556,165651,,1558,0
1620713802556,165672,,1535,0
1620713802556,165692,,1520,0
1620713802556,165712,,1491,0
1620713802556,165732,,1520,0
1620713802556,165752,,1522,0
1620713802556,165772,,1521,0
1620713803060,165792,,1464,0
1620713803060,165812,,1571,0
1620713803060,165832,,1846,0
1620713803060,165852,,2191,0
1620713803060,165872,,2420,0
1620713803060,165893,,2581,0
1620713803060,165913,,2617,0
1620713803060,165933,,2609,0
1620713803060,165953,,2480,0
1620713803060,165973,,2302,0
1620713803060,165993,,2099,0
1620713803060,166013,,1874,0
1620713803060,166033,,1761,0
1620713803060,166053,,1650,0
1620713803060,166073,,1569,0
1620713803060,166093,,1515,0
1620713803060,166114,,1479,0
1620713803060,166134,,1557,0
1620713803060,166154,,1616,0
1620713803060,166174,,1662,0
1620713803060,166194,,1685,0
1620713803060,166214,,1657,1
1620713803060,166234,,1703,1
1620713803060,166254,,1698,1
1620713803060,166274,,1666,1
1620713803563,166295,,1535,1
1620713803563,166315,,1552,1
1620713803563,166335,,1619,1
1620713803563,166355,,1683,1
1620713803563,166375,,1645,1
1620713803563,166395,,1589,1
1620713803563,166415,,1529,1
1620713803563,166435,,1517,1
1620713803563,166455,,1520,1
1620713803563,166475,,1533,1
1620713803563,166495,,1591,1
1620713803563,166515,,1742,1
1620713803563,166535,,1968,1
1620713803563,166556,,2285,1
1620713803563,166576,,2518,1
1620713803563,166596,,2660,0
1620713803563,166616,,2676,0
1620713803563,166636,,2576,0
1620713803563,166656,,2433,0
1620713803563,166676,,2244,0
1620713803563,166696,,2047,0
1620713803563,166716,,1882,0
1620713803563,166736,,1741,0
1620713803563,166756,,1680,0
1620713803563,166777,,1648,0
1620713804063,166797,,1582,0
1620713804063,166817,,1647,0
1620713804063,166837,,1790,0
1620713804063,166857,,1899,0
1620713804063,166877,,1879,0
1620713804063,166897,,1819,0
1620713804063,166917,,1755,0
1620713804063,166937,,1677,0
1620713804063,166957,,1662,0
1620713804063,166977,,1635,0
1620713804063,166998,,1607,0
1620713804063,167018,,1584,0
1620713804063,167038,,1507,0
1620713804063,167058,,1585,0
1620713804063,167078,,1611,0
1620713804063,167098,,1600,0
1620713804063,167118,,1585,0
1620713804063,167138,,1509,0
1620713804063,167158,,1597,0
1620713804063,167178,,1682,0
1620713804063,167198,,1855,0
1620713804063,167219,,2134,0
1620713804063,167239,,2373,0
1620713804063,167259,,2640,0
1620713804063,167279,,2762,0
1620713804578,167299,,2658,0
1620713804578,167319,,2573,0
1620713804578,167339,,2438,0
1620713804578,167359,,2285,0
1620713804578,167379,,2113,0
1620713804578,167399,,2016,0
1620713804578,167419,,1857,0
1620713804578,167440,,1663,0
1620713804578,167460,,1587,0
1620713804578,167480,,1577,0
1620713804578,167500,,1600,0
1620713804578,167520,,1648,0
1620713804578,167540,,1686,0
1620713804578,167560,,1728,0
1620713804578,167580,,1790,0
1620713804578,167600,,1791,1
1620713804578,167620,,1762,1
1620713804578,167640,,1723,1
1620713804578,167661,,1666,1
1620713804578,167681,,1664,1
1620713804578,167701,,1634,1
1620713804578,167721,,1597,1
1620713804578,167741,,1566,1
1620713804578,167761,,1520,1
1620713804578,167781,,1520,1
1620713805067,167801,,1424,1
1620713805067,167821,,1446,1
1620713805067,167841,,1534,1
1620713805067,167861,,1686,1
1620713805067,167882,,1850,1
1620713805067,167902,,2042,1
1620713805067,167922,,2256,1
1620713805067,167942,,2432,1
1620713805067,167962,,2499,0
1620713805067,167982,,2503,0
1620713805067,168002,,2399,0
1620713805067,168022,,2230,0
1620713805067,168042,,2045,0
1620713805067,168062,,1841,0
1620713805067,168082,,1730,0
1620713805067,168103,,1618,0
1620713805067,168123,,1547,0
1620713805067,168143,,1520,0
1620713805067,168163,,1509,0
1620713805067,168183,,1613,0
1620713805067,168203,,1681,0
1620713805067,168223,,1729,0
1620713805067,168243,,1749,0
1620713805067,168263,,1715,0
1620713805067,168283,,1741,0
1620713805576,168303,,1641,0
1620713805576,168324,,1635,0
1620713805576,168344,,1684,0
1620713805576,168364,,1675,0
1620713805576,168384,,1648,0
1620713805576,168404,,1579,0
1620713805576,168424,,1515,0
1620713805576,168444,,1481,0
1620713805576,168464,,1443,0
1620713805576,168484,,1487,0
1620713805576,168504,,1525,0
1620713805576,168524,,1584,0
1620713805576,168545,,1695,0
1620713805576,168565,,1872,0
1620713805576,168585,,2096,0
1620713805576,168605,,2307,0
1620713805576,168625,,2433,0
1620713805576,168645,,2475,0
1620713805576,168665,,2427,0
1620713805576,168685,,2333,0
1620713805576,168705,,2235,0
1620713805576,168725,,2099,0
1620713805576,168745,,1949,0
1620713805576,168766,,1803,0
1620713805576,168786,,1696,0
1620713806075,168806,,1579,0
1620713806075,168826,,1606,0
1620713806075,168846,,1733,0
1620713806075,168866,,1850,0
1620713806075,168886,,1834,0
1620713806075,168906,,1837,0
1620713806075,168926,,1799,0
1620713806075,168946,,1759,0
1620713806075,168966,,1712,1
1620713806075,168987,,1642,1
1620713806075,169007,,1633,1
1620713806075,169027,,1598,1
1620713806075,169047,,1572,1
1620713806075,169067,,1562,1
1620713806075,169087,,1534,1
1620713806075,169107,,1582,1
1620713806075,169127,,1587,1
1620713806075,169147,,1589,1
1620713806075,169167,,1607,1
1620713806075,169187,,1664,1
1620713806075,169208,,1904,1
1620713806075,169228,,2149,1
1620713806075,169248,,2389,1
1620713806075,169268,,2559,1
1620713806075,169288,,2592,1
1620713806586,169308,,2510,1
1620713806586,169328,,2431,1
1620713806586,169348,,2352,1
1620713806586,169368,,2229,1
1620713806586,169388,,1952,1
1620713806586,169408,,1805,1
1620713806586,169429,,1648,1
1620713806586,169449,,1558,1
1620713806586,169469,,1534,1
1620713806586,169489,,1546,1
1620713806586,169509,,1633,1
1620713806586,169529,,1712,1
1620713806586,169549,,1763,1
1620713806586,169569,,1777,1
1620713806586,169589,,1758,1
1620713806586,169609,,1747,1
1620713806586,169629,,1735,1
1620713806586,169650,,1693,1
1620713806586,169670,,1655,1
1620713806586,169690,,1625,1
1620713806586,169710,,1623,1
1620713806586,169730,,1641,1
1620713806586,169750,,1646,1
1620713806586,169770,,1638,1
1620713806586,169790,,1626,1
1620713807087,169810,,1543,1
1620713807087,169830,,1614,1
1620713807087,169850,,1824,1
1620713807087,169871,,2083,1
1620713807087,169891,,2279,1
1620713807087,169911,,2432,1
1620713807087,169931,,2545,1
1620713807087,169951,,2549,1
1620713807087,169971,,2467,1
1620713807087,169991,,2333,1
1620713807087,170011,,2166,1
1620713807087,170031,,2042,1
1620713807087,170051,,1907,1
1620713807087,170071,,1791,1
1620713807087,170092,,1691,1
1620713807087,170112,,1619,1
1620713807087,170132,,1639,1
1620713807087,170152,,1661,1
1620713807087,170172,,1698,1
1620713807087,170192,,1742,1
1620713807087,170212,,1741,1
1620713807087,170232,,1799,1
1620713807087,170252,,1801,1
1620713807087,170272,,1757,1
1620713807087,170292,,1705,1
1620713807577,170312,,1585,1
1620713807577,170332,,1584,1
1620713807577,170352,,1645,1
1620713807577,170372,,1725,1
1620713807577,170392,,1680,1
1620713807577,170412,,1577,1
1620713807577,170432,,1570,1
1620713807577,170452,,1545,1
1620713807577,170472,,1531,1
1620713807577,170492,,1566,1
1620713807577,170512,,1657,1
1620713807577,170532,,1872,1
1620713807577,170552,,2131,1
1620713807577,170572,,2351,1
1620713807577,170592,,2483,1
1620713807577,170612,,2504,1
1620713807577,170632,,2439,1
1620713807577,170652,,2320,1
1620713807577,170672,,2160,1
1620713807577,170692,,1994,1
1620713807577,170712,,1840,1
1620713807577,170732,,1712,1
1620713807577,170753,,1659,1
1620713807577,170773,,1621,1
1620713807577,170793,,1616,1
1620713808079,170813,,1562,1
1620713808079,170833,,1645,1
1620713808079,170853,,1789,1
1620713808079,170873,,1904,1
1620713808079,170893,,1897,1
1620713808079,170913,,1839,1
1620713808079,170933,,1747,1
1620713808079,170953,,1707,1
1620713808079,170974,,1650,1
1620713808079,170994,,1614,1
1620713808079,171014,,1594,1
1620713808079,171034,,1585,1
1620713808079,171054,,1635,1
1620713808079,171074,,1671,1
1620713808079,171094,,1681,1
1620713808079,171114,,1683,1
1620713808079,171134,,1665,1
1620713808079,171154,,1744,1
1620713808079,171174,,1854,1
1620713808079,171195,,2025,1
1620713808079,171215,,2230,1
1620713808079,171235,,2383,1
1620713808079,171255,,2544,1
1620713808079,171275,,2585,1
1620713808079,171295,,2513,1
1620713808581,171315,,2302,1
1620713808581,171335,,2193,1
1620713808581,171355,,2110,1
1620713808581,171375,,2064,1
1620713808581,171395,,1904,1
1620713808581,171416,,1751,1
1620713808581,171436,,1619,1
1620713808581,171456,,1629,1
1620713808581,171476,,1655,1
1620713808581,171496,,1687,1
1620713808581,171516,,1718,1
1620713808581,171536,,1714,1
1620713808581,171556,,1743,1
1620713808581,171576,,1733,1
1620713808581,171596,,1705,1
1620713808581,171616,,1675,1
1620713808581,171637,,1639,1
1620713808581,171657,,1631,1
1620713808581,171677,,1638,1
1620713808581,171697,,1638,1
1620713808581,171717,,1645,1
1620713808581,171737,,1653,1
1620713808581,171757,,1665,1
1620713808581,171777,,1706,1
1620713808581,171797,,1712,1
1620713809085,171818,,1637,1
1620713809085,171838,,1721,1
1620713809085,171858,,1963,1
1620713809085,171878,,2263,1
1620713809085,171898,,2485,1
1620713809085,171918,,2653,1
1620713809085,171938,,2731,1
1620713809085,171958,,2699,1
1620713809085,171978,,2634,1
1620713809085,171998,,2482,1
1620713809085,172018,,2320,1
1620713809085,172038,,2160,1
1620713809085,172058,,1951,1
1620713809085,172079,,1885,1
1620713809085,172099,,1800,1
1620713809085,172119,,1729,1
1620713809085,172139,,1699,1
1620713809085,172159,,1667,1
1620713809085,172179,,1714,1
1620713809085,172199,,1744,1
1620713809085,172219,,1751,1
1620713809085,172239,,1753,1
1620713809085,172259,,1696,1
1620713809085,172279,,1709,1
1620713809085,172300,,1666,1
1620713809588,172320,,1552,1
1620713809588,172340,,1552,1
1620713809588,172360,,1584,1
1620713809588,172380,,1673,1
1620713809588,172400,,1625,1
1620713809588,172420,,1558,1
1620713809588,172440,,1515,1
1620713809588,172460,,1465,1
1620713809588,172480,,1515,1
1620713809588,172500,,1535,1
1620713809588,172521,,1563,1
1620713809588,172541,,1611,1
1620713809588,172561,,1700,1
1620713809588,172581,,1946,1
1620713809588,172601,,2222,1
1620713809588,172621,,2459,1
1620713809588,172641,,2627,1
1620713809588,172661,,2667,1
1620713809588,172681,,2624,0
1620713809588,172701,,2512,0
1620713809588,172721,,2353,0
1620713809588,172742,,2183,0
1620713809588,172762,,2015,0
1620713809588,172782,,1893,0
1620713809588,172802,,1808,0
1620713810086,172822,,1650,0
1620713810086,172842,,1663,0
1620713810086,172862,,1718,0
1620713810086,172882,,1851,0
1620713810086,172902,,1877,0
1620713810086,172922,,1841,0
1620713810086,172942,,1791,0
1620713810086,172963,,1747,0
1620713810086,172983,,1712,0
1620713810086,173003,,1712,0
1620713810086,173023,,1689,0
1620713810086,173043,,1659,0
1620713810086,173063,,1632,0
1620713810086,173083,,1597,0
1620713810086,173103,,1615,0
1620713810086,173123,,1600,0
1620713810086,173143,,1581,0
1620713810086,173163,,1552,0
1620713810086,173184,,1493,0
1620713810086,173204,,1520,0
1620713810086,173224,,1581,0
1620713810086,173244,,1724,0
1620713810086,173264,,1953,0
1620713810086,173284,,2206,0
1620713810086,173304,,2480,0
1620713810590,173324,,2551,0
1620713810590,173344,,2629,0
1620713810590,173364,,2658,0
1620713810590,173384,,2559,0
1620713810590,173405,,2382,0
1620713810590,173425,,2160,0
1620713810590,173445,,1946,0
1620713810590,173465,,1780,0
1620713810590,173485,,1647,0
1620713810590,173505,,1655,0
1620713810590,173525,,1696,0
1620713810590,173545,,1758,0
1620713810590,173565,,1824,0
1620713810590,173585,,1846,0
1620713810590,173605,,1904,0
1620713810590,173626,,1911,0
1620713810590,173646,,1881,0
1620713810590,173666,,1831,0
1620713810590,173686,,1759,0
1620713810590,173706,,1731,0
1620713810590,173726,,1698,0
1620713810590,173746,,1649,0
1620713810590,173766,,1595,0
1620713810590,173786,,1529,0
1620713810590,173806,,1489,0
1620713811100,173826,,1389,0
1620713811100,173847,,1383,0
1620713811100,173867,,1441,0
1620713811100,173887,,1502,0
1620713811100,173907,,1506,0
1620713811100,173927,,1598,0
1620713811100,173947,,1749,0
1620713811100,173967,,1962,0
1620713811100,173987,,2165,0
1620713811100,174007,,2302,0
1620713811100,174027,,2384,0
1620713811100,174047,,2352,0
1620713811100,174068,,2255,0
1620713811100,174088,,2119,0
1620713811100,174108,,1959,0
1620713811100,174128,,1840,0
1620713811100,174148,,1713,0
1620713811100,174168,,1605,0
1620713811100,174188,,1525,0
1620713811100,174208,,1486,0
1620713811100,174228,,1551,0
1620713811100,174248,,1605,0
1620713811100,174268,,1649,0
1620713811100,174289,,1661,0
1620713811100,174309,,1606,1
1620713811599,174329,,1505,1
1620713811599,174349,,1489,1
1620713811599,174369,,1516,1
1620713811599,174389,,1543,1
1620713811599,174409,,1401,1
1620713811599,174429,,1306,1
1620713811599,174449,,1185,1
1620713811599,174469,,1062,1
1620713811599,174489,,946,1
1620713811599,174510,,842,1
1620713811599,174530,,896,1
1620713811599,174550,,987,1
1620713811599,174570,,1141,1
1620713811599,174590,,1375,1
1620713811599,174610,,1682,1
1620713811599,174630,,2112,1
1620713811599,174650,,2465,0
1620713811599,174670,,2734,0
1620713811599,174690,,2864,0
1620713811599,174710,,2867,0
1620713811599,174731,,2775,0
1620713811599,174751,,2631,0
1620713811599,174771,,2448,0
1620713811599,174791,,2266,0
1620713811599,174811,,2080,0
1620713812106,174831,,1871,0
1620713812106,174851,,1830,0
1620713812106,174871,,1886,0
1620713812106,174891,,1999,0
1620713812106,174911,,2001,0
1620713812106,174931,,1958,0
1620713812106,174952,,1905,0
1620713812106,174972,,1799,0
1620713812106,174992,,1651,0
1620713812106,175012,,1502,0
1620713812106,175032,,1366,0
1620713812106,175052,,1318,0
1620713812106,175072,,1296,0
1620713812106,175092,,1313,0
1620713812106,175112,,1367,0
1620713812106,175132,,1421,0
1620713812106,175152,,1515,0
1620713812106,175173,,1565,0
1620713812106,175193,,1588,0
1620713812106,175213,,1594,0
1620713812106,175233,,1499,0
1620713812106,175253,,1495,0
1620713812106,175273,,1525,0
1620713812106,175293,,1577,0
1620713812106,175313,,1694,0
1620713812599,175333,,1927,0
1620713812599,175353,,2231,0
1620713812599,175373,,2515,0
1620713812599,175394,,2737,0
1620713812599,175414,,2713,0
1620713812599,175434,,2541,0
1620713812599,175454,,2401,0
1620713812599,175474,,2233,0
1620713812599,175494,,2063,0
1620713812599,175514,,1859,0
1620713812599,175534,,1613,0
1620713812599,175554,,1427,0
1620713812599,175574,,1241,0
1620713812599,175594,,1119,0
1620713812599,175615,,1091,0
1620713812599,175635,,1111,0
1620713812599,175655,,1271,0
1620713812599,175675,,1389,0
1620713812599,175695,,1473,0
1620713812599,175715,,1551,0
1620713812599,175735,,1573,0
1620713812599,175755,,1648,0
1620713812599,175775,,1675,0
1620713812599,175795,,1647,0
1620713812599,175815,,1584,0
1620713813104,175835,,1456,0
1620713813104,175855,,1479,0
1620713813104,175875,,1587,0
1620713813104,175895,,1728,0
1620713813104,175915,,1744,0
1620713813104,175935,,1729,0
1620713813104,175955,,1698,0
1620713813104,175975,,1706,0
1620713813104,175995,,1699,0
1620713813104,176015,,1750,0
1620713813104,176035,,1907,0
1620713813104,176056,,2163,0
1620713813104,176076,,2495,0
1620713813104,176096,,2784,0
1620713813104,176116,,2987,0
1620713813104,176136,,3056,0
1620713813104,176156,,2963,0
1620713813104,176176,,2826,0
1620713813104,176196,,2621,0
1620713813104,176216,,2393,0
1620713813104,176236,,2189,0
1620713813104,176256,,1993,0
1620713813104,176277,,1879,0
1620713813104,176297,,1766,0
1620713813104,176317,,1680,0
1620713813610,176337,,1567,0
1620713813610,176357,,1622,0
1620713813610,176377,,1765,0
1620713813610,176397,,1894,0
1620713813610,176417,,1882,0
1620713813610,176437,,1819,0
1620713813610,176457,,1712,0
1620713813610,176477,,1693,0
1620713813610,176498,,1647,0
1620713813610,176518,,1614,0
1620713813610,176538,,1601,0
1620713813610,176558,,1573,0
1620713813610,176578,,1655,0
1620713813610,176598,,1728,0
1620713813610,176618,,1803,0
1620713813610,176638,,1861,0
1620713813610,176658,,1855,0
1620713813610,176678,,1904,0
1620713813610,176698,,1905,0
1620713813610,176719,,1878,0
1620713813610,176739,,1856,0
1620713813610,176759,,1851,0
1620713813610,176779,,1989,0
1620713813610,176799,,2199,0
1620713813610,176819,,2418,0
1620713814109,176839,,2523,0
1620713814109,176859,,2650,0
1620713814109,176879,,2713,0
1620713814109,176899,,2659,0
1620713814109,176919,,2437,0
1620713814109,176940,,2200,0
1620713814109,176960,,1986,0
1620713814109,176980,,1899,0
1620713814109,177000,,1845,0
1620713814109,177020,,1802,0
1620713814109,177040,,1782,0
1620713814109,177060,,1796,0
1620713814109,177080,,1797,0
1620713814109,177100,,1874,0
1620713814109,177120,,1885,0
1620713814109,177140,,1872,0
1620713814109,177161,,1840,0
1620713814109,177181,,1787,0
1620713814109,177201,,1762,0
1620713814109,177221,,1723,0
1620713814109,177241,,1674,0
1620713814109,177261,,1621,0
1620713814109,177281,,1567,0
1620713814109,177301,,1576,0
1620713814109,177321,,1563,0
1620713814614,177341,,1470,0
1620713814614,177361,,1510,0
1620713814614,177382,,1602,0
1620713814614,177402,,1705,0
1620713814614,177422,,1671,0
1620713814614,177442,,1600,0
1620713814614,177462,,1531,0
1620713814614,177482,,1460,0
1620713814614,177502,,1487,0
1620713814614,177522,,1511,0
1620713814614,177542,,1591,0
1620713814614,177562,,1744,0
1620713814614,177582,,1917,0
1620713814614,177603,,2193,0
1620713814614,177623,,2364,0
1620713814614,177643,,2461,0
1620713814614,177663,,2484,0
1620713814614,177683,,2402,0
1620713814614,177703,,2366,0
1620713814614,177723,,2256,0
1620713814614,177743,,2123,0
1620713814614,177763,,1979,0
1620713814614,177783,,1821,0
1620713814614,177803,,1777,0
1620713814614,177824,,1739,0
1620713815120,177844,,1650,1
1620713815120,177864,,1713,1
1620713815120,177884,,1817,1
1620713815120,177904,,1965,1
1620713815120,177924,,1964,1
1620713815120,177944,,1877,1
1620713815120,177964,,1777,1
1620713815120,177984,,1661,1
1620713815120,178004,,1594,1
1620713815120,178024,,1566,1
1620713815120,178045,,1545,1
1620713815120,178065,,1529,1
1620713815120,178085,,1532,1
1620713815120,178105,,1521,1
1620713815120,178125,,1583,1
1620713815120,178145,,1590,1
1620713815120,178165,,1589,1
1620713815120,178185,,1578,1
1620713815120,178205,,1551,1
1620713815120,178225,,1584,1
1620713815120,178245,,1615,1
1620713815120,178266,,1708,1
1620713815120,178286,,1873,1
1620713815120,178306,,2112,1
1620713815120,178326,,2423,1
1620713815611,178346,,2598,0
1620713815611,178366,,2810,0
1620713815611,178386,,2927,0
1620713815611,178406,,2873,0
1620713815611,178426,,2688,0
1620713815611,178446,,2418,0
1620713815611,178466,,2167,0
1620713815611,178487,,1942,0
1620713815611,178507,,1750,0
1620713815611,178527,,1673,0
1620713815611,178547,,1613,0
1620713815611,178567,,1579,0
1620713815611,178587,,1584,0
1620713815611,178607,,1583,0
1620713815611,178627,,1664,0
1620713815611,178647,,1710,0
1620713815611,178667,,1738,0
1620713815611,178687,,1746,0
1620713815611,178708,,1693,0
1620713815611,178728,,1703,0
1620713815611,178748,,1677,0
1620713815611,178768,,1634,0
1620713815611,178788,,1590,0
1620713815611,178808,,1516,0
1620713815611,178828,,1517,0
1620713816112,178848,,1431,0
1620713816112,178868,,1451,0
1620713816112,178888,,1545,0
1620713816112,178908,,1609,0
1620713816112,178929,,1578,0
1620713816112,178949,,1516,0
1620713816112,178969,,1458,0
1620713816112,178989,,1458,0
1620713816112,179009,,1535,0
1620713816112,179029,,1757,0
1620713816112,179049,,2043,0
1620713816112,179069,,2314,0
1620713816112,179089,,2494,0
1620713816112,179109,,2555,0
1620713816112,179129,,2502,0
1620713816112,179150,,2393,0
1620713816112,179170,,2218,0
1620713816112,179190,,2021,0
1620713816112,179210,,1841,0
1620713816112,179230,,1679,0
1620713816112,179250,,1600,0
1620713816112,179270,,1533,0
1620713816112,179290,,1513,0
1620713816112,179310,,1515,0
1620713816112,179330,,1526,0
1620713810086,173143,,1581,0
1620713810086,173163,,1552,0
1620713810086,173184,,1493,0
1620713810086,173204,,1520,0
1620713810086,173224,,1581,0
1620713810086,173244,,1724,0
1620713810086,173264,,1953,0
1620713810086,173284,,2206,0
1620713810086,173304,,2480,0
1620713810590,173324,,2551,0
1620713810590,173344,,2629,0
1620713810590,173364,,2658,0
1620713810590,173384,,2559,0
1620713810590,173405,,2382,0
1620713810590,173425,,2160,0
1620713810590,173445,,1946,0
1620713810590,173465,,1780,0
1620713810590,173485,,1647,0
1620713810590,173505,,1655,0
1620713810590,173525,,1696,0
1620713810590,173545,,1758,0
1620713810590,173565,,1824,0
1620713810590,173585,,1846,0
1620713810590,173605,,1904,0
1620713810590,173626,,1911,0
1620713810590,173646,,1881,0
1620713810590,173666,,1831,0
1620713810590,173686,,1759,0
1620713810590,173706,,1731,0
1620713810590,173726,,1698,0
1620713810590,173746,,1649,0
1620713810590,173766,,1595,0
1620713810590,173786,,1529,0
1620713810590,173806,,1489,0
1620713811100,173826,,1389,0
1620713811100,173847,,1383,0
1620713811100,173867,,1441,0
1620713811100,173887,,1502,0
1620713811100,173907,,1506,0
1620713811100,173927,,1598,0
1620713811100,173947,,1749,0
1620713811100,173967,,1962,0
1620713811100,173987,,2165,0
1620713811100,174007,,2302,0
1620713811100,174027,,2384,0
1620713811100,174047,,2352,0
1620713811100,174068,,2255,0
1620713811100,174088,,2119,0
1620713811100,174108,,1959,0
1620713811100,174128,,1840,0
1620713811100,174148,,1713,0
1620713811100,174168,,1605,0
1620713811100,174188,,1525,0
1620713811100,174208,,1486,0
1620713811100,174228,,1551,0
1620713811100,174248,,1605,0
1620713811100,174268,,1649,0
1620713811100,174289,,1661,0
1620713811100,174309,,1606,1
1620713811599,174329,,1505,1
1620713811599,174349,,1489,1
1620713811599,174369,,1516,1
1620713811599,174389,,1543,1
1620713811599,174409,,1401,1
1620713811599,174429,,1306,1
1620713811599,174449,,1185,1
1620713811599,174469,,1062,1
1620713811599,174489,,946,1
1620713811599,174510,,842,1
1620713811599,174530,,896,1
1620713811599,174550,,987,1
1620713811599,174570,,1141,1
1620713811599,174590,,1375,1
1620713811599,174610,,1682,1
1620713811599,174630,,2112,1
1620713811599,174650,,2465,0
1620713811599,174670,,2734,0
1620713811599,174690,,2864,0
1620713811599,174710,,2867,0
1620713811599,174731,,2775,0
1620713811599,174751,,2631,0
1620713811599,174771,,2448,0
1620713811599,174791,,2266,0
1620713811599,174811,,2080,0
1620713812106,174831,,1871,0
1620713812106,174851,,1830,0
1620713812106,174871,,1886,0
1620713812106,174891,,1999,0
1620713812106,174911,,2001,0
1620713812106,174931,,1958,0
1620713812106,174952,,1905,0
1620713812106,174972,,1799,0
1620713812106,174992,,1651,0
1620713812106,175012,,1502,0
1620713812106,175032,,1366,0
1620713812106,175052,,1318,0
1620713812106,175072,,1296,0
1620713812106,175092,,1313,0
1620713812106,175112,,1367,0
1620713812106,175132,,1421,0
1620713812106,175152,,1515,0
1620713812106,175173,,1565,0
1620713812106,175193,,1588,0
1620713812106,175213,,1594,0
1620713812106,175233,,1499,0
1620713812106,175253,,1495,0
1620713812106,175273,,1525,0
1620713812106,175293,,1577,0
1620713812106,175313,,1694,0
1620713812599,175333,,1927,0
1620713812599,175353,,2231,0
1620713812599,175373,,2515,0
1620713812599,175394,,2737,0
1620713812599,175414,,2713,0
1620713812599,175434,,2541,0
1620713812599,175454,,2401,0
1620713812599,175474,,2233,0
1620713812599,175494,,2063,0
1620713812599,175514,,1859,0
1620713812599,175534,,1613,0
1620713812599,175554,,1427,0
1620713812599,175574,,1241,0
1620713812599,175594,,1119,0
1620713812599,175615,,1091,0
1620713812599,175635,,1111,0
1620713812599,175655,,1271,0
1620713812599,175675,,1389,0
1620713812599,175695,,1473,0
1620713812599,175715,,1551,0
1620713812599,175735,,1573,0
1620713812599,175755,,1648,0
1620713812599,175775,,1675,0
1620713812599,175795,,1647,0
1620713812599,175815,,1584,0
1620713813104,175835,,1456,0
1620713813104,175855,,1479,0
1620713813104,175875,,1587,0
1620713813104,175895,,1728,0
1620713813104,175915,,1744,0
1620713813104,175935,,1729,0
1620713813104,175955,,1698,0
1620713813104,175975,,1706,0
1620713813104,175995,,1699,0
1620713813104,176015,,1750,0
1620713813104,176035,,1907,0
1620713813104,176056,,2163,0
1620713813104,176076,,2495,0
1620713813104,176096,,2784,0
1620713813104,176116,,2987,0
1620713813104,176136,,3056,0
1620713813104,176156,,2963,0
1620713813104,176176,,2826,0
1620713813104,176196,,2621,0
1620713813104,176216,,2393,0
1620713813104,176236,,2189,0
1620713813104,176256,,1993,0
1620713813104,176277,,1879,0
1620713813104,176297,,1766,0
1620713813104,176317,,1680,0
1620713813610,176337,,1567,0
1620713813610,176357,,1622,0
1620713813610,176377,,1765,0
1620713813610,176397,,1894,0
1620713813610,176417,,1882,0
1620713813610,176437,,1819,0
1620713813610,176457,,1712,0
1620713813610,176477,,1693,0
1620713813610,176498,,1647,0
1620713813610,176518,,1614,0
1620713813610,176538,,1601,0
1620713813610,176558,,1573,0
1620713813610,176578,,1655,0
1620713813610,176598,,1728,0
1620713813610,176618,,1803,0
1620713813610,176638,,1861,0
1620713813610,176658,,1855,0
1620713813610,176678,,1904,0
1620713813610,176698,,1905,0
1620713813610,176719,,1878,0
1620713813610,176739,,1856,0
1620713813610,176759,,1851,0
1620713813610,176779,,1989,0
1620713813610,176799,,2199,0
1620713813610,176819,,2418,0
1620713814109,176839,,2523,0
1620713814109,176859,,2650,0
1620713814109,176879,,2713,0
1620713814109,176899,,2659,0
1620713814109,176919,,2437,0
1620713814109,176940,,2200,0
1620713814109,176960,,1986,0
1620713814109,176980,,1899,0
1620713814109,177000,,1845,0
1620713814109,177020,,1802,0
1620713814109,177040,,1782,0
1620713814109,177060,,1796,0
1620713814109,177080,,1797,0
1620713814109,177100,,1874,0
1620713814109,177120,,1885,0
1620713814109,177140,,1872,0
1620713814109,177161,,1840,0
1620713814109,177181,,1787,0
1620713814109,177201,,1762,0
1620713814109,177221,,1723,0
1620713814109,177241,,1674,0
1620713814109,177261,,1621,0
1620713814109,177281,,1567,0
1620713814109,177301,,1576,0
1620713814109,177321,,1563,0
1620713814614,177341,,1470,0
1620713814614,177361,,1510,0
1620713814614,177382,,1602,0
1620713814614,177402,,1705,0
1620713814614,177422,,1671,0
1620713814614,177442,,1600,0
1620713814614,177462,,1531,0
1620713814614,177482,,1460,0
1620713814614,177502,,1487,0
1620713814614,177522,,1511,0
1620713814614,177542,,1591,0
1620713814614,177562,,1744,0
1620713814614,177582,,1917,0
1620713814614,177603,,2193,0
1620713814614,177623,,2364,0
1620713814614,177643,,2461,0
1620713814614,177663,,2484,0
1620713814614,177683,,2402,0
1620713814614,177703,,2366,0
1620713814614,177723,,2256,0
1620713814614,177743,,2123,0
1620713814614,177763,,1979,0
1620713814614,177783,,1821,0
1620713814614,177803,,1777,0
1620713814614,177824,,1739,0
1620713815120,177844,,1650,1
1620713815120,177864,,1713,1
1620713815120,177884,,1817,1
1620713815120,177904,,1965,1
1620713815120,177924,,1964,1
1620713815120,177944,,1877,1
1620713815120,177964,,1777,1
1620713815120,177984,,1661,1
1620713815120,178004,,1594,1
1620713815120,178024,,1566,1
1620713815120,178045,,1545,1
1620713815120,178065,,1529,1
1620713815120,178085,,1532,1
1620713815120,178105,,1521,1
1620713815120,178125,,1583,1
1620713815120,178145,,1590,1
1620713815120,178165,,1589,1
1620713815120,178185,,1578,1
1620713815120,178205,,1551,1
1620713815120,178225,,1584,1
1620713815120,178245,,1615,1
1620713815120,178266,,1708,1
1620713815120,178286,,1873,1
1620713815120,178306,,2112,1
1620713815120,178326,,2423,1
1620713815611,178346,,2598,0
1620713815611,178366,,2810,0
1620713815611,178386,,2927,0
1620713815611,178406,,2873,0
1620713815611,178426,,2688,0
1620713815611,178446,,2418,0
1620713815611,178466,,2167,0
1620713815611,178487,,1942,0
1620713815611,178507,,1750,0
1620713815611,178527,,1673,0
1620713815611,178547,,1613,0
1620713815611,178567,,1579,0
1620713815611,178587,,1584,0
1620713815611,178607,,1583,0
1620713815611,178627,,1664,0
1620713815611,178647,,1710,0
1620713815611,178667,,1738,0
1620713815611,178687,,1746,0
1620713815611,178708,,1693,0
1620713815611,178728,,1703,0
1620713815611,178748,,1677,0
1620713815611,178768,,1634,0
1620713815611,178788,,1590,0
1620713815611,178808,,1516,0
1620713815611,178828,,1517,0
1620713816112,178848,,1431,0
1620713816112,178868,,1451,0
1620713816112,178888,,1545,0
1620713816112,178908,,1609,0
1620713816112,178929,,1578,0
1620713816112,178949,,1516,0
1620713816112,178969,,1458,0
1620713816112,178989,,1458,0
1620713816112,179009,,1535,0
1620713816112,179029,,1757,0
1620713816112,179049,,2043,0
1620713816112,179069,,2314,0
1620713816112,179089,,2494,0
1620713816112,179109,,2555,0
1620713816112,179129,,2502,0
1620713816112,179150,,2393,0
1620713816112,179170,,2218,0
1620713816112,179190,,2021,0
1620713816112,179210,,1841,0
1620713816112,179230,,1679,0
1620713816112,179250,,1600,0
1620713816112,179270,,1533,0
1620713816112,179290,,1513,0
1620713816112,179310,,1515,0
1620713816112,179330,,1526,0
1620713816617,179350,,1515,1
1620713816617,179371,,1613,1
1620713816617,179391,,1735,1
1620713816617,179411,,1827,1
1620713816617,179431,,1766,1
1620713816617,179451,,1723,1
1620713816617,179471,,1646,1
1620713816617,179491,,1581,1
1620713816617,179511,,1524,1
1620713816617,179531,,1465,1
1620713816617,179551,,1486,1
1620713816617,179571,,1488,1
1620713816617,179592,,1491,1
1620713816617,179612,,1503,1
1620713816617,179632,,1481,1
1620713816617,179652,,1526,1
1620713816617,179672,,1554,1
1620713816617,179692,,1605,1
1620713816617,179712,,1730,1
1620713816617,179732,,1919,1
1620713816617,179752,,2210,1
1620713816617,179772,,2438,1
1620713816617,179792,,2577,0
1620713816617,179813,,2611,0
1620713816617,179833,,2487,0
1620713817125,179853,,2342,0
1620713817125,179873,,2246,0
1620713817125,179893,,2173,0
1620713817125,179913,,2096,0
1620713817125,179933,,1890,0
1620713817125,179953,,1774,0
1620713817125,179973,,1689,0
1620713817125,179993,,1654,0
1620713817125,180013,,1664,0
1620713817125,180034,,1698,0
1620713817125,180054,,1757,0
1620713817125,180074,,1811,0
1620713817125,180094,,1831,0
1620713817125,180114,,1823,0
1620713817125,180134,,1801,0
1620713817125,180154,,1765,0
1620713817125,180174,,1744,0
1620713817125,180194,,1701,0
1620713817125,180214,,1649,0
1620713817125,180234,,1610,0
1620713817125,180255,,1577,0
1620713817125,180275,,1584,0
1620713817125,180295,,1585,0
1620713817125,180315,,1584,0
1620713817125,180335,,1583,0
1620713817628,180355,,1535,0
1620713817628,180375,,1648,0
1620713817628,180395,,1895,0
1620713817628,180415,,2202,0
1620713817628,180435,,2421,0
1620713817628,180455,,2585,0
1620713817628,180476,,2727,0
1620713817628,180496,,2751,0
1620713817628,180516,,2672,0
1620713817628,180536,,2531,0
1620713817628,180556,,2339,0
1620713817628,180576,,2198,0
1620713817628,180596,,2032,0
1620713817628,180616,,1883,0
1620713817628,180636,,1772,0
1620713817628,180656,,1666,0
1620713817628,180676,,1702,0
1620713817628,180697,,1729,0
1620713817628,180717,,1767,0
1620713817628,180737,,1792,0
1620713817628,180757,,1766,0
1620713817628,180777,,1797,0
1620713817628,180797,,1782,1
1620713817628,180817,,1744,1
1620713817628,180837,,1700,1
1620713818124,180857,,1584,1
1620713818124,180877,,1588,1
1620713818124,180897,,1671,1
1620713818124,180918,,1738,1
1620713818124,180938,,1701,1
1620713818124,180958,,1627,1
1620713818124,180978,,1616,1
1620713818124,180998,,1615,1
1620713818124,181018,,1601,1
1620713818124,181038,,1600,1
1620713818124,181058,,1611,1
1620713818124,181078,,1712,1
1620713818124,181098,,1921,1
1620713818124,181118,,2174,1
1620713818124,181139,,2434,1
1620713818124,181159,,2576,0
1620713818124,181179,,2620,0
1620713818124,181199,,2549,0
1620713818124,181219,,2387,0
1620713818124,181239,,2201,0
1620713818124,181259,,2031,0
1620713818124,181279,,1876,0
1620713818124,181299,,1771,0
1620713818124,181319,,1666,0
1620713818124,181339,,1602,0
1620713818627,181359,,1488,0
1620713818627,181379,,1529,0
1620713818627,181399,,1648,0
1620713818627,181419,,1781,0
1620713818627,181439,,1791,0
1620713818627,181459,,1744,0
1620713818627,181479,,1648,0
1620713818627,181499,,1662,0
1620713818627,181519,,1630,0
1620713818627,181539,,1589,0
1620713818627,181559,,1559,0
1620713818627,181580,,1502,0
1620713818627,181600,,1522,0
1620713818627,181620,,1526,0
1620713818627,181640,,1533,0
1620713818627,181660,,1551,0
1620713818627,181680,,1519,0
1620713818627,181700,,1572,0
1620713818627,181720,,1589,0
1620713818627,181740,,1606,0
1620713818627,181760,,1687,0
1620713818627,181780,,1811,0
1620713818627,181801,,2095,0
1620713818627,181821,,2297,0
1620713818627,181841,,2423,0
1620713819133,181861,,2380,0
1620713819133,181881,,2383,0
1620713819133,181901,,2377,0
1620713819133,181921,,2322,0
1620713819133,181941,,2140,0
1620713819133,181961,,1936,0
1620713819133,181981,,1747,0
1620713819133,182001,,1605,0
1620713819133,182022,,1627,0
1620713819133,182042,,1687,0
1620713819133,182062,,1853,0
1620713819133,182082,,1857,0
1620713819133,182102,,1762,0
1620713819133,182122,,1776,0
1620713819133,182142,,1795,0
1620713819133,182162,,1878,1
1620713819133,182182,,1827,1
1620713819133,182202,,1645,1
1620713819133,182222,,1602,1
1620713819133,182243,,1617,1
1620713819133,182263,,1673,1
1620713819133,182283,,1600,1
1620713819133,182303,,1603,1
1620713819133,182323,,1691,1
1620713819133,182343,,1689,1
1620713819632,182364,,1550,1
1620713819632,182384,,1552,1
1620713819632,182404,,1627,1
1620713819632,182424,,1837,1
1620713819632,182444,,1987,1
1620713819632,182465,,2177,1
1620713819632,182485,,2355,1
1620713819632,182505,,2480,1
1620713819632,182525,,2575,1
1620713819632,182545,,2543,1
1620713819632,182565,,2433,1
1620713819632,182585,,2287,1
1620713819632,182605,,2107,1
1620713819632,182625,,1979,1
1620713819632,182645,,1853,1
1620713819632,182665,,1737,1
1620713819632,182686,,1651,1
1620713819632,182706,,1594,1
1620713819632,182726,,1653,1
1620713819632,182746,,1691,1
1620713819632,182766,,1718,1
1620713819632,182786,,1737,1
1620713819632,182806,,1710,1
1620713819632,182826,,1743,1
1620713819632,182846,,1738,1
1620713820131,182867,,1624,1
1620713820131,182887,,1635,1
1620713820131,182908,,1689,1
1620713820131,182928,,1765,1
1620713820131,182948,,1712,1
1620713820131,182968,,1640,1
1620713820131,182988,,1584,1
1620713820131,183008,,1514,1
1620713820131,183028,,1542,1
1620713820131,183048,,1558,1
1620713820131,183068,,1573,1
1620713820131,183088,,1625,1
1620713820131,183108,,1730,1
1620713820131,183128,,1962,1
1620713820131,183148,,2223,1
1620713820131,183168,,2418,1
1620713820131,183188,,2534,1
1620713820131,183208,,2539,1
1620713820131,183228,,2478,1
1620713820131,183248,,2366,1
1620713820131,183268,,2206,1
1620713820131,183288,,2033,1
1620713820131,183308,,1879,1
1620713820131,183328,,1723,1
1620713820131,183349,,1646,1
1620713820639,183369,,1498,1
1620713820639,183389,,1521,1
1620713820639,183409,,1638,1
1620713820639,183429,,1738,1
1620713820639,183449,,1750,1
1620713820639,183469,,1715,1
1620713820639,183489,,1680,1
1620713820639,183509,,1648,1
1620713820639,183529,,1607,1
1620713820639,183549,,1613,1
1620713820639,183570,,1599,1
1620713820639,183590,,1577,1
1620713820639,183610,,1552,1
1620713820639,183630,,1530,1
1620713820639,183650,,1564,1
1620713820639,183670,,1559,1
1620713820639,183690,,1560,1
1620713820639,183710,,1566,1
1620713820639,183730,,1546,1
1620713820639,183750,,1579,1
1620713820639,183770,,1584,1
1620713820639,183791,,1619,1
1620713820639,183811,,1728,1
1620713820639,183831,,1872,1
1620713820639,183851,,2137,1
1620713821135,183871,,2269,1
1620713821135,183891,,2417,1
1620713821135,183911,,2498,1
1620713821135,183931,,2513,1
1620713821135,183951,,2400,1
1620713821135,183971,,2195,1
1620713821135,183991,,1983,1
1620713821135,184012,,1799,1
1620713821135,184032,,1621,1
1620713821135,184052,,1597,1
1620713821135,184072,,1584,1
1620713821135,184092,,1602,1
1620713821135,184112,,1643,1
1620713821135,184132,,1670,1
1620713821135,184152,,1746,1
1620713821135,184172,,1786,1
1620713821135,184192,,1783,1
1620713821135,184212,,1761,1
1620713821135,184233,,1734,1
1620713821135,184253,,1719,1
1620713821135,184273,,1721,1
1620713821135,184293,,1707,1
1620713821135,184313,,1684,1
1620713821135,184333,,1664,1
1620713821135,184353,,1671,1
1620713821643,184373,,1613,1
1620713821643,184393,,1649,1
1620713821643,184413,,1746,1
1620713821643,184433,,1808,1
1620713821643,184453,,1745,1
1620713821643,184473,,1712,1
1620713821643,184493,,1710,1
1620713821643,184513,,1786,1
1620713821643,184533,,1949,1
1620713821643,184553,,2160,1
1620713821643,184573,,2353,1
1620713821643,184593,,2469,1
1620713821643,184613,,2480,1
1620713821643,184633,,2416,1
1620713821643,184653,,2277,1
1620713821643,184674,,2176,1
1620713821643,184694,,2055,1
1620713821643,184714,,1929,1
1620713821643,184734,,1822,1
1620713821643,184754,,1728,1
1620713821643,184774,,1727,1
1620713821643,184794,,1715,1
1620713821643,184814,,1734,1
1620713821643,184834,,1760,1
1620713821643,184854,,1737,1
1620713822144,184874,,1713,1
1620713822144,184895,,1743,1
1620713822144,184915,,1807,1
1620713822144,184935,,1835,1
1620713822144,184955,,1713,1
1620713822144,184975,,1664,1
1620713822144,184995,,1601,1
1620713822144,185015,,1557,1
1620713822144,185035,,1535,1
1620713822144,185055,,1526,1
1620713822144,185075,,1603,1
1620713822144,185095,,1638,1
1620713822144,185116,,1648,1
1620713822144,185136,,1651,1
1620713822144,185156,,1617,1
1620713822144,185176,,1641,1
1620713822144,185196,,1645,1
1620713822144,185216,,1664,1
1620713822144,185236,,1765,1
1620713822144,185256,,1937,1
1620713822144,185276,,2179,1
1620713822144,185296,,2434,1
1620713822144,185316,,2591,1
1620713822144,185337,,2643,1
1620713822144,185357,,2576,1
1620713822647,185377,,2387,1
1620713822647,185397,,2272,1
1620713822647,185417,,2179,1
1620713822647,185437,,2105,1
1620713822647,185457,,1925,1
1620713822647,185477,,1759,1
1620713822647,185497,,1653,1
1620713822647,185517,,1593,1
1620713822647,185537,,1583,1
1620713822647,185558,,1611,1
1620713822647,185578,,1641,1
1620713822647,185598,,1706,1
1620713822647,185618,,1731,1
1620713822647,185638,,1715,1
1620713822647,185658,,1661,1
1620713822647,185678,,1563,1
1620713822647,185698,,1498,1
1620713822647,185718,,1422,1
1620713822647,185738,,1360,1
1620713822647,185758,,1334,1
1620713822647,185779,,1337,1
1620713822647,185799,,1419,1
1620713822647,185819,,1495,1
1620713822647,185839,,1589,1
1620713822647,185859,,1679,1
1620713812599,175333,,1927,0
1620713812599,175353,,2231,0
1620713812599,175373,,2515,0
1620713812599,175394,,2737,0
1620713812599,175414,,2713,0
1620713812599,175434,,2541,0
1620713812599,175454,,2401,0
1620713812599,175474,,2233,0
1620713812599,175494,,2063,0
1620713812599,175514,,1859,0
1620713812599,175534,,1613,0
1620713812599,175554,,1427,0
1620713812599,175574,,1241,0
1620713812599,175594,,1119,0
1620713812599,175615,,1091,0
1620713812599,175635,,1111,0
1620713812599,175655,,1271,0
1620713812599,175675,,1389,0
1620713812599,175695,,1473,0
1620713812599,175715,,1551,0
1620713812599,175735,,1573,0
1620713812599,175755,,1648,0
1620713812599,175775,,1675,0
1620713812599,175795,,1647,0
1620713812599,175815,,1584,0
1620713813104,175835,,1456,0
1620713813104,175855,,1479,0
1620713813104,175875,,1587,0
1620713813104,175895,,1728,0
1620713813104,175915,,1744,0
1620713813104,175935,,1729,0
1620713813104,175955,,1698,0
1620713813104,175975,,1706,0
1620713813104,175995,,1699,0
1620713813104,176015,,1750,0
1620713813104,176035,,1907,0
1620713813104,176056,,2163,0
1620713813104,176076,,2495,0
1620713813104,176096,,2784,0
1620713813104,176116,,2987,0
1620713813104,176136,,3056,0
1620713813104,176156,,2963,0
1620713813104,176176,,2826,0
1620713813104,176196,,2621,0
1620713813104,176216,,2393,0
1620713813104,176236,,2189,0
1620713813104,176256,,1993,0
1620713813104,176277,,1879,0
1620713813104,176297,,1766,0
1620713813104,176317,,1680,0
1620713813610,176337,,1567,0
1620713813610,176357,,1622,0
1620713813610,176377,,1765,0
1620713813610,176397,,1894,0
1620713813610,176417,,1882,0
1620713813610,176437,,1819,0
1620713813610,176457,,1712,0
1620713813610,176477,,1693,0
1620713813610,176498,,1647,0
1620713813610,176518,,1614,0
1620713813610,176538,,1601,0
1620713813610,176558,,1573,0
1620713813610,176578,,1655,0
1620713813610,176598,,1728,0
1620713813610,176618,,1803,0
1620713813610,176638,,1861,0
1620713813610,176658,,1855,0
1620713813610,176678,,1904,0
1620713813610,176698,,1905,0
1620713813610,176719,,1878,0
1620713813610,176739,,1856,0
1620713813610,176759,,1851,0
1620713813610,176779,,1989,0
1620713813610,176799,,2199,0
1620713813610,176819,,2418,0
1620713814109,176839,,2523,0
1620713814109,176859,,2650,0
1620713814109,176879,,2713,0
1620713814109,176899,,2659,0
1620713814109,176919,,2437,0
1620713814109,176940,,2200,0
1620713814109,176960,,1986,0
1620713814109,176980,,1899,0
1620713814109,177000,,1845,0
1620713814109,177020,,1802,0
1620713814109,177040,,1782,0
1620713814109,177060,,1796,0
1620713814109,177080,,1797,0
1620713814109,177100,,1874,0
1620713814109,177120,,1885,0
1620713814109,177140,,1872,0
1620713814109,177161,,1840,0
1620713814109,177181,,1787,0
1620713814109,177201,,1762,0
1620713814109,177221,,1723,0
1620713814109,177241,,1674,0
1620713814109,177261,,1621,0
1620713814109,177281,,1567,0
1620713814109,177301,,1576,0
1620713814109,177321,,1563,0
1620713814614,177341,,1470,0
1620713814614,177361,,1510,0
1620713814614,177382,,1602,0
1620713814614,177402,,1705,0
1620713814614,177422,,1671,0
1620713814614,177442,,1600,0
1620713814614,177462,,1531,0
1620713814614,177482,,1460,0
1620713814614,177502,,1487,0
1620713814614,177522,,1511,0
1620713814614,177542,,1591,0
1620713814614,177562,,1744,0
1620713814614,177582,,1917,0
1620713814614,177603,,2193,0
1620713814614,177623,,2364,0
1620713814614,177643,,2461,0
1620713814614,177663,,2484,0
1620713814614,177683,,2402,0
1620713814614,177703,,2366,0
1620713814614,177723,,2256,0
1620713814614,177743,,2123,0
1620713814614,177763,,1979,0
1620713814614,177783,,1821,0
1620713814614,177803,,1777,0
1620713814614,177824,,1739,0
1620713815120,177844,,1650,1
1620713815120,177864,,1713,1
1620713815120,177884,,1817,1
1620713815120,177904,,1965,1
1620713815120,177924,,1964,1
1620713815120,177944,,1877,1
1620713815120,177964,,1777,1
1620713815120,177984,,1661,1
1620713815120,178004,,1594,1
1620713815120,178024,,1566,1
1620713815120,178045,,1545,1
1620713815120,178065,,1529,1
1620713815120,178085,,1532,1
1620713815120,178105,,1521,1
1620713815120,178125,,1583,1
1620713815120,178145,,1590,1
1620713815120,178165,,1589,1
1620713815120,178185,,1578,1
1620713815120,178205,,1551,1
1620713815120,178225,,1584,1
1620713815120,178245,,1615,1
1620713815120,178266,,1708,1
1620713815120,178286,,1873,1
1620713815120,178306,,2112,1
1620713815120,178326,,2423,1
1620713815611,178346,,2598,0
1620713815611,178366,,2810,0
1620713815611,178386,,2927,0
1620713815611,178406,,2873,0
1620713815611,178426,,2688,0
1620713815611,178446,,2418,0
1620713815611,178466,,2167,0
1620713815611,178487,,1942,0
1620713815611,178507,,1750,0
1620713815611,178527,,1673,0
1620713815611,178547,,1613,0
1620713815611,178567,,1579,0
1620713815611,178587,,1584,0
1620713815611,178607,,1583,0
1620713815611,178627,,1664,0
1620713815611,178647,,1710,0
1620713815611,178667,,1738,0
1620713815611,178687,,1746,0
1620713815611,178708,,1693,0
1620713815611,178728,,1703,0
1620713815611,178748,,1677,0
1620713815611,178768,,1634,0
1620713815611,178788,,1590,0
1620713815611,178808,,1516,0
1620713815611,178828,,1517,0
1620713816112,178848,,1431,0
1620713816112,178868,,1451,0
1620713816112,178888,,1545,0
1620713816112,178908,,1609,0
1620713816112,178929,,1578,0
1620713816112,178949,,1516,0
1620713816112,178969,,1458,0
1620713816112,178989,,1458,0
1620713816112,179009,,1535,0
1620713816112,179029,,1757,0
1620713816112,179049,,2043,0
1620713816112,179069,,2314,0
1620713816112,179089,,2494,0
1620713816112,179109,,2555,0
1620713816112,179129,,2502,0
1620713816112,179150,,2393,0
1620713816112,179170,,2218,0
1620713816112,179190,,2021,0
1620713816112,179210,,1841,0
1620713816112,179230,,1679,0
1620713816112,179250,,1600,0
1620713816112,179270,,1533,0
1620713816112,179290,,1513,0
1620713816112,179310,,1515,0
1620713816112,179330,,1526,0
1620713816617,179350,,1515,1
1620713816617,179371,,1613,1
1620713816617,179391,,1735,1
1620713816617,179411,,1827,1
1620713816617,179431,,1766,1
1620713816617,179451,,1723,1
1620713816617,179471,,1646,1
1620713816617,179491,,1581,1
1620713816617,179511,,1524,1
1620713816617,179531,,1465,1
1620713816617,179551,,1486,1
1620713816617,179571,,1488,1
1620713816617,179592,,1491,1
1620713816617,179612,,1503,1
1620713816617,179632,,1481,1
1620713816617,179652,,1526,1
1620713816617,179672,,1554,1
1620713816617,179692,,1605,1
1620713816617,179712,,1730,1
1620713816617,179732,,1919,1
1620713816617,179752,,2210,1
1620713816617,179772,,2438,1
1620713816617,179792,,2577,0
1620713816617,179813,,2611,0
1620713816617,179833,,2487,0
1620713817125,179853,,2342,0
1620713817125,179873,,2246,0
1620713817125,179893,,2173,0
1620713817125,179913,,2096,0
1620713817125,179933,,1890,0
1620713817125,179953,,1774,0
1620713817125,179973,,1689,0
1620713817125,179993,,1654,0
1620713817125,180013,,1664,0
1620713817125,180034,,1698,0
1620713817125,180054,,1757,0
1620713817125,180074,,1811,0
1620713817125,180094,,1831,0
1620713817125,180114,,1823,0
1620713817125,180134,,1801,0
1620713817125,180154,,1765,0
1620713817125,180174,,1744,0
1620713817125,180194,,1701,0
1620713817125,180214,,1649,0
1620713817125,180234,,1610,0
1620713817125,180255,,1577,0
1620713817125,180275,,1584,0
1620713817125,180295,,1585,0
1620713817125,180315,,1584,0
1620713817125,180335,,1583,0
1620713817628,180355,,1535,0
1620713817628,180375,,1648,0
1620713817628,180395,,1895,0
1620713817628,180415,,2202,0
1620713817628,180435,,2421,0
1620713817628,180455,,2585,0
1620713817628,180476,,2727,0
1620713817628,180496,,2751,0
1620713817628,180516,,2672,0
1620713817628,180536,,2531,0
1620713817628,180556,,2339,0
1620713817628,180576,,2198,0
1620713817628,180596,,2032,0
1620713817628,180616,,1883,0
1620713817628,180636,,1772,0
1620713817628,180656,,1666,0
1620713817628,180676,,1702,0
1620713817628,180697,,1729,0
1620713817628,180717,,1767,0
1620713817628,180737,,1792,0
1620713817628,180757,,1766,0
1620713817628,180777,,1797,0
1620713817628,180797,,1782,1
1620713817628,180817,,1744,1
1620713817628,180837,,1700,1
1620713818124,180857,,1584,1
1620713818124,180877,,1588,1
1620713818124,180897,,1671,1
1620713818124,180918,,1738,1
1620713818124,180938,,1701,1
1620713818124,180958,,1627,1
1620713818124,180978,,1616,1
1620713818124,180998,,1615,1
1620713818124,181018,,1601,1
1620713818124,181038,,1600,1
1620713818124,181058,,1611,1
1620713818124,181078,,1712,1
1620713818124,181098,,1921,1
1620713818124,181118,,2174,1
1620713818124,181139,,2434,1
1620713818124,181159,,2576,0
1620713818124,181179,,2620,0
1620713818124,181199,,2549,0
1620713818124,181219,,2387,0
1620713818124,181239,,2201,0
1620713818124,181259,,2031,0
1620713818124,181279,,1876,0
1620713818124,181299,,1771,0
1620713818124,181319,,1666,0
1620713818124,181339,,1602,0
1620713818627,181359,,1488,0
1620713818627,181379,,1529,0
1620713818627,181399,,1648,0
1620713818627,181419,,1781,0
1620713818627,181439,,1791,0
1620713818627,181459,,1744,0
1620713818627,181479,,1648,0
1620713818627,181499,,1662,0
1620713818627,181519,,1630,0
1620713818627,181539,,1589,0
1620713818627,181559,,1559,0
1620713818627,181580,,1502,0
1620713818627,181600,,1522,0
1620713818627,181620,,1526,0
1620713818627,181640,,1533,0
1620713818627,181660,,1551,0
1620713818627,181680,,1519,0
1620713818627,181700,,1572,0
1620713818627,181720,,1589,0
1620713818627,181740,,1606,0
1620713818627,181760,,1687,0
1620713818627,181780,,1811,0
1620713818627,181801,,2095,0
1620713818627,181821,,2297,0
1620713818627,181841,,2423,0
1620713819133,181861,,2380,0
1620713819133,181881,,2383,0
1620713819133,181901,,2377,0
1620713819133,181921,,2322,0
1620713819133,181941,,2140,0
1620713819133,181961,,1936,0
1620713819133,181981,,1747,0
1620713819133,182001,,1605,0
1620713819133,182022,,1627,0
1620713819133,182042,,1687,0
1620713819133,182062,,1853,0
1620713819133,182082,,1857,0
1620713819133,182102,,1762,0
1620713819133,182122,,1776,0
1620713819133,182142,,1795,0
1620713819133,182162,,1878,1
1620713819133,182182,,1827,1
1620713819133,182202,,1645,1
1620713819133,182222,,1602,1
1620713819133,182243,,1617,1
1620713819133,182263,,1673,1
1620713819133,182283,,1600,1
1620713819133,182303,,1603,1
1620713819133,182323,,1691,1
1620713819133,182343,,1689,1
1620713819632,182364,,1550,1
1620713819632,182384,,1552,1
1620713819632,182404,,1627,1
1620713819632,182424,,1837,1
1620713819632,182444,,1987,1
1620713819632,182465,,2177,1
1620713819632,182485,,2355,1
1620713819632,182505,,2480,1
1620713819632,182525,,2575,1
1620713819632,182545,,2543,1
1620713819632,182565,,2433,1
1620713819632,182585,,2287,1
1620713819632,182605,,2107,1
1620713819632,182625,,1979,1
1620713819632,182645,,1853,1
1620713819632,182665,,1737,1
1620713819632,182686,,1651,1
1620713819632,182706,,1594,1
1620713819632,182726,,1653,1
1620713819632,182746,,1691,1
1620713819632,182766,,1718,1
1620713819632,182786,,1737,1
1620713819632,182806,,1710,1
1620713819632,182826,,1743,1
1620713819632,182846,,1738,1
1620713820131,182867,,1624,1
1620713820131,182887,,1635,1
1620713820131,182908,,1689,1
1620713820131,182928,,1765,1
1620713820131,182948,,1712,1
1620713820131,182968,,1640,1
1620713820131,182988,,1584,1
1620713820131,183008,,1514,1
1620713820131,183028,,1542,1
1620713820131,183048,,1558,1
1620713820131,183068,,1573,1
1620713820131,183088,,1625,1
1620713820131,183108,,1730,1
1620713820131,183128,,1962,1
1620713820131,183148,,2223,1
1620713820131,183168,,2418,1
1620713820131,183188,,2534,1
1620713820131,183208,,2539,1
1620713820131,183228,,2478,1
1620713820131,183248,,2366,1
1620713820131,183268,,2206,1
1620713820131,183288,,2033,1
1620713820131,183308,,1879,1
1620713820131,183328,,1723,1
1620713820131,183349,,1646,1
1620713820639,183369,,1498,1
1620713820639,183389,,1521,1
1620713820639,183409,,1638,1
1620713820639,183429,,1738,1
1620713820639,183449,,1750,1
1620713820639,183469,,1715,1
1620713820639,183489,,1680,1
1620713820639,183509,,1648,1
1620713820639,183529,,1607,1
1620713820639,183549,,1613,1
1620713820639,183570,,1599,1
1620713820639,183590,,1577,1
1620713820639,183610,,1552,1
1620713820639,183630,,1530,1
1620713820639,183650,,1564,1
1620713820639,183670,,1559,1
1620713820639,183690,,1560,1
1620713820639,183710,,1566,1
1620713820639,183730,,1546,1
1620713820639,183750,,1579,1
1620713820639,183770,,1584,1
1620713820639,183791,,1619,1
1620713820639,183811,,1728,1
1620713820639,183831,,1872,1
1620713820639,183851,,2137,1
1620713821135,183871,,2269,1
1620713821135,183891,,2417,1
1620713821135,183911,,2498,1
1620713821135,183931,,2513,1
1620713821135,183951,,2400,1
1620713821135,183971,,2195,1
1620713821135,183991,,1983,1
1620713821135,184012,,1799,1
1620713821135,184032,,1621,1
1620713821135,184052,,1597,1
1620713821135,184072,,1584,1
1620713821135,184092,,1602,1
1620713821135,184112,,1643,1
1620713821135,184132,,1670,1
1620713821135,184152,,1746,1
1620713821135,184172,,1786,1
1620713821135,184192,,1783,1
1620713821135,184212,,1761,1
1620713821135,184233,,1734,1
1620713821135,184253,,1719,1
1620713821135,184273,,1721,1
1620713821135,184293,,1707,1
1620713821135,184313,,1684,1
1620713821135,184333,,1664,1
1620713821135,184353,,1671,1
1620713821643,184373,,1613,1
1620713821643,184393,,1649,1
1620713821643,184413,,1746,1
1620713821643,184433,,1808,1
1620713821643,184453,,1745,1
1620713821643,184473,,1712,1
1620713821643,184493,,1710,1
1620713821643,184513,,1786,1
1620713821643,184533,,1949,1
1620713821643,184553,,2160,1
1620713821643,184573,,2353,1
1620713821643,184593,,2469,1
1620713821643,184613,,2480,1
1620713821643,184633,,2416,1
1620713821643,184653,,2277,1
1620713821643,184674,,2176,1
1620713821643,184694,,2055,1
1620713821643,184714,,1929,1
1620713821643,184734,,1822,1
1620713821643,184754,,1728,1
1620713821643,184774,,1727,1
1620713821643,184794,,1715,1
1620713821643,184814,,1734,1
1620713821643,184834,,1760,1
1620713821643,184854,,1737,1
1620713822144,184874,,1713,1
1620713822144,184895,,1743,1
1620713822144,184915,,1807,1
1620713822144,184935,,1835,1
1620713822144,184955,,1713,1
1620713822144,184975,,1664,1
1620713822144,184995,,1601,1
1620713822144,185015,,1557,1
1620713822144,185035,,1535,1
1620713822144,185055,,1526,1
1620713822144,185075,,1603,1
1620713822144,185095,,1638,1
1620713822144,185116,,1648,1
1620713822144,185136,,1651,1
1620713822144,185156,,1617,1
1620713822144,185176,,1641,1
1620713822144,185196,,1645,1
1620713822144,185216,,1664,1
1620713822144,185236,,1765,1
1620713822144,185256,,1937,1
1620713822144,185276,,2179,1
1620713822144,185296,,2434,1
1620713822144,185316,,2591,1
1620713822144,185337,,2643,1
1620713822144,185357,,2576,1
1620713822647,185377,,2387,1
1620713822647,185397,,2272,1
1620713822647,185417,,2179,1
1620713822647,185437,,2105,1
1620713822647,185457,,1925,1
1620713822647,185477,,1759,1
1620713822647,185497,,1653,1
1620713822647,185517,,1593,1
1620713822647,185537,,1583,1
1620713822647,185558,,1611,1
1620713822647,185578,,1641,1
1620713822647,185598,,1706,1
1620713822647,185618,,1731,1
1620713822647,185638,,1715,1
1620713822647,185658,,1661,1
1620713822647,185678,,1563,1
1620713822647,185698,,1498,1
1620713822647,185718,,1422,1
1620713822647,185738,,1360,1
1620713822647,185758,,1334,1
1620713822647,185779,,1337,1
1620713822647,185799,,1419,1
1620713822647,185819,,1495,1
1620713822647,185839,,1589,1
1620713822647,185859,,1679,1
1620713823145,185880,,1687,1
1620713823145,185900,,1808,1
1620713823145,185920,,1966,1
1620713823145,185940,,2096,1
1620713823145,185960,,2105,1
1620713823145,185980,,2064,1
1620713823145,186001,,2124,1
1620713823145,186021,,2195,1
1620713823145,186041,,2285,1
1620713823145,186061,,2346,1
1620713823145,186081,,2327,1
1620713823145,186101,,2330,1
1620713823145,186121,,2255,1
1620713823145,186141,,2134,1
1620713823145,186161,,2006,1
1620713823145,186181,,1856,1
1620713823145,186201,,1801,1
1620713823145,186222,,1744,1
1620713823145,186242,,1707,1
1620713823145,186262,,1693,1
1620713823145,186282,,1680,1
1620713823145,186302,,1745,1
1620713823145,186322,,1783,1
1620713823145,186342,,1790,1
1620713823145,186362,,1775,1
1620713823655,186382,,1677,1
1620713823655,186402,,1708,1
1620713823655,186422,,1794,1
1620713823655,186443,,1849,1
1620713823655,186463,,1793,1
1620713823655,186483,,1715,1
1620713823655,186503,,1649,1
1620713823655,186523,,1633,1
1620713823655,186543,,1609,1
1620713823655,186563,,1585,1
1620713823655,186583,,1565,1
1620713823655,186603,,1535,1
1620713823655,186623,,1552,1
1620713823655,186643,,1559,1
1620713823655,186664,,1619,1
1620713823655,186684,,1779,1
1620713823655,186704,,1990,1
1620713823655,186724,,2263,1
1620713823655,186744,,2459,1
1620713823655,186764,,2567,1
1620713823655,186784,,2557,1
1620713823655,186804,,2446,1
1620713823655,186824,,2334,1
1620713823655,186844,,2182,1
1620713823655,186864,,2028,1
1620713824160,186884,,1811,1
1620713824160,186904,,1744,1
1620713824160,186924,,1744,1
1620713824160,186944,,1781,1
1620713824160,186964,,1719,1
1620713824160,186984,,1674,1
1620713824160,187004,,1616,1
1620713824160,187024,,1664,1
1620713824160,187044,,1680,1
1620713824160,187064,,1686,1
1620713824160,187084,,1683,1
1620713824160,187105,,1637,1
1620713824160,187125,,1663,1
1620713824160,187145,,1659,1
1620713824160,187165,,1638,1
1620713824160,187185,,1616,1
1620713824160,187205,,1559,1
1620713824160,187225,,1588,1
1620713824160,187245,,1617,1
1620713824160,187265,,1607,1
1620713824160,187285,,1584,1
1620713824160,187305,,1551,1
1620713824160,187326,,1553,1
1620713824160,187346,,1568,1
1620713824160,187366,,1579,1
1620713824660,187386,,1531,1
1620713824660,187406,,1680,1
1620713824660,187426,,1968,1
1620713824660,187446,,2267,1
1620713824660,187466,,2448,1
1620713824660,187486,,2551,1
1620713824660,187506,,2570,1
1620713824660,187526,,2500,1
1620713824660,187547,,2393,1
1620713824660,187567,,2237,1
1620713824660,187587,,2069,1
1620713824660,187607,,1905,1
1620713824660,187627,,1758,1
1620713824660,187647,,1671,1
1620713824660,187667,,1597,1
1620713824660,187687,,1550,1
1620713824660,187707,,1533,1
1620713824660,187727,,1547,1
1620713824660,187747,,1603,1
1620713824660,187768,,1648,1
1620713824660,187788,,1676,1
1620713824660,187808,,1696,1
1620713824660,187828,,1678,1
1620713824660,187848,,1698,1
1620713824660,187868,,1681,1
1620713825156,187888,,1574,1
1620713825156,187908,,1587,1
1620713825156,187928,,1665,1
1620713825156,187948,,1738,1
1620713825156,187968,,1691,1
1620713825156,187989,,1630,1
1620713825156,188009,,1582,1
1620713825156,188029,,1518,1
1620713825156,188049,,1551,1
1620713825156,188069,,1557,1
1620713825156,188089,,1555,1
1620713825156,188109,,1563,1
1620713825156,188129,,1563,1
1620713825156,188149,,1701,1
1620713825156,188169,,1862,1
1620713825156,188189,,2071,1
1620713825156,188210,,2267,1
1620713825156,188230,,2379,1
1620713825156,188250,,2499,1
1620713825156,188270,,2499,1
1620713825156,188290,,2421,1
1620713825156,188310,,2306,1
1620713825156,188330,,2158,1
1620713825156,188350,,2071,1
1620713825156,188370,,1967,1
1620713825658,188391,,1793,1
1620713825658,188411,,1768,1
1620713825658,188432,,1818,1
1620713825658,188452,,1918,1
1620713825658,188472,,1920,1
1620713825658,188492,,1884,1
1620713825658,188512,,1846,1
1620713825658,188532,,1817,1
1620713825658,188552,,1809,1
1620713825658,188572,,1815,1
1620713825658,188592,,1808,1
1620713825658,188612,,1796,1
1620713825658,188632,,1776,1
1620713825658,188652,,1744,1
1620713825658,188672,,1742,1
1620713825658,188692,,1722,1
1620713825658,188712,,1689,1
1620713825658,188732,,1672,1
1620713825658,188752,,1649,1
1620713825658,188772,,1687,1
1620713825658,188792,,1690,1
1620713825658,188812,,1664,1
1620713825658,188832,,1641,1
1620713825658,188852,,1590,1
1620713825658,188873,,1635,1
1620713826159,188894,,1652,1
1620713826159,188914,,1874,1
1620713826159,188934,,2189,1
1620713826159,188954,,2487,1
1620713826159,188974,,2683,1
1620713826159,188994,,2741,1
1620713826159,189014,,2703,1
1620713826159,189034,,2603,1
1620713826159,189054,,2436,1
1620713826159,189074,,2323,1
1620713826159,189095,,2174,1
1620713826159,189115,,2018,1
1620713826159,189135,,1891,1
1620713826159,189155,,1751,1
1620713826159,189175,,1792,1
1620713826159,189195,,1822,1
1620713826159,189215,,1856,1
1620713826159,189235,,1887,1
1620713826159,189255,,1873,1
1620713826159,189275,,1927,1
1620713826159,189295,,1879,1
1620713826159,189316,,1832,1
1620713826159,189336,,1857,1
1620713826159,189356,,1901,1
1620713826159,189376,,1840,1
1620713826660,189396,,1811,1
1620713826660,189416,,1802,1
1620713826660,189436,,1826,1
1620713826660,189456,,1820,1
1620713826660,189476,,1786,1
1620713826660,189496,,1727,1
1620713826660,189516,,1680,1
1620713826660,189537,,1651,1
1620713826660,189557,,1634,1
1620713826660,189577,,1647,1
1620713826660,189597,,1694,1
1620713826660,189617,,1777,1
1620713826660,189637,,1927,1
1620713826660,189657,,2134,1
1620713826660,189677,,2355,1
1620713826660,189697,,2535,1
1620713826660,189717,,2603,1
1620713826660,189737,,2576,1
1620713826660,189758,,2451,1
1620713826660,189778,,2313,1
1620713826660,189798,,2194,1
1620713826660,189818,,2064,1
1620713826660,189838,,1930,1
1620713826660,189858,,1814,1
1620713826660,189878,,1721,1
1620713827164,189898,,1595,1
1620713827164,189918,,1648,1
1620713827164,189938,,1712,1
1620713827164,189958,,1833,1
1620713827164,189979,,1813,1
1620713827164,189999,,1781,1
1620713827164,190019,,1716,1
1620713827164,190039,,1647,1
1620713827164,190059,,1599,1
1620713827164,190079,,1549,1
1620713827164,190099,,1584,1
1620713827164,190119,,1587,1
1620713827164,190139,,1584,1
1620713827164,190159,,1581,1
1620713827164,190179,,1549,1
1620713827164,190200,,1591,1
1620713827164,190220,,1606,1
1620713827164,190240,,1604,1
1620713827164,190260,,1600,1
1620713827164,190280,,1565,1
1620713827164,190300,,1629,1
1620713827164,190320,,1709,1
1620713827164,190340,,1841,1
1620713827164,190360,,2032,1
1620713827164,190380,,2201,1
1620713819632,182806,,1710,1
1620713819632,182826,,1743,1
1620713819632,182846,,1738,1
1620713820131,182867,,1624,1
1620713820131,182887,,1635,1
1620713820131,182908,,1689,1
1620713820131,182928,,1765,1
1620713820131,182948,,1712,1
1620713820131,182968,,1640,1
1620713820131,182988,,1584,1
1620713820131,183008,,1514,1
1620713820131,183028,,1542,1
1620713820131,183048,,1558,1
1620713820131,183068,,1573,1
1620713820131,183088,,1625,1
1620713820131,183108,,1730,1
1620713820131,183128,,1962,1
1620713820131,183148,,2223,1
1620713820131,183168,,2418,1
1620713820131,183188,,2534,1
1620713820131,183208,,2539,1
1620713820131,183228,,2478,1
1620713820131,183248,,2366,1
1620713820131,183268,,2206,1
1620713820131,183288,,2033,1
1620713820131,183308,,1879,1
1620713820131,183328,,1723,1
1620713820131,183349,,1646,1
1620713820639,183369,,1498,1
1620713820639,183389,,1521,1
1620713820639,183409,,1638,1
1620713820639,183429,,1738,1
1620713820639,183449,,1750,1
1620713820639,183469,,1715,1
1620713820639,183489,,1680,1
1620713820639,183509,,1648,1
1620713820639,183529,,1607,1
1620713820639,183549,,1613,1
1620713820639,183570,,1599,1
1620713820639,183590,,1577,1
1620713820639,183610,,1552,1
1620713820639,183630,,1530,1
1620713820639,183650,,1564,1
1620713820639,183670,,1559,1
1620713820639,183690,,1560,1
1620713820639,183710,,1566,1
1620713820639,183730,,1546,1
1620713820639,183750,,1579,1
1620713820639,183770,,1584,1
1620713820639,183791,,1619,1
1620713820639,183811,,1728,1
1620713820639,183831,,1872,1
1620713820639,183851,,2137,1
1620713821135,183871,,2269,1
1620713821135,183891,,2417,1
1620713821135,183911,,2498,1
1620713821135,183931,,2513,1
1620713821135,183951,,2400,1
1620713821135,183971,,2195,1
1620713821135,183991,,1983,1
1620713821135,184012,,1799,1
1620713821135,184032,,1621,1
1620713821135,184052,,1597,1
1620713821135,184072,,1584,1
1620713821135,184092,,1602,1
1620713821135,184112,,1643,1
1620713821135,184132,,1670,1
1620713821135,184152,,1746,1
1620713821135,184172,,1786,1
1620713821135,184192,,1783,1
1620713821135,184212,,1761,1
1620713821135,184233,,1734,1
1620713821135,184253,,1719,1
1620713821135,184273,,1721,1
1620713821135,184293,,1707,1
1620713821135,184313,,1684,1
1620713821135,184333,,1664,1
1620713821135,184353,,1671,1
1620713821643,184373,,1613,1
1620713821643,184393,,1649,1
1620713821643,184413,,1746,1
1620713821643,184433,,1808,1
1620713821643,184453,,1745,1
1620713821643,184473,,1712,1
1620713821643,184493,,1710,1
1620713821643,184513,,1786,1
1620713821643,184533,,1949,1
1620713821643,184553,,2160,1
1620713821643,184573,,2353,1
1620713821643,184593,,2469,1
1620713821643,184613,,2480,1
1620713821643,184633,,2416,1
1620713821643,184653,,2277,1
1620713821643,184674,,2176,1
1620713821643,184694,,2055,1
1620713821643,184714,,1929,1
1620713821643,184734,,1822,1
1620713821643,184754,,1728,1
1620713821643,184774,,1727,1
1620713821643,184794,,1715,1
1620713821643,184814,,1734,1
1620713821643,184834,,1760,1
1620713821643,184854,,1737,1
1620713822144,184874,,1713,1
1620713822144,184895,,1743,1
1620713822144,184915,,1807,1
1620713822144,184935,,1835,1
1620713822144,184955,,1713,1
1620713822144,184975,,1664,1
1620713822144,184995,,1601,1
1620713822144,185015,,1557,1
1620713822144,185035,,1535,1
1620713822144,185055,,1526,1
1620713822144,185075,,1603,1
1620713822144,185095,,1638,1
1620713822144,185116,,1648,1
1620713822144,185136,,1651,1
1620713822144,185156,,1617,1
1620713822144,185176,,1641,1
1620713822144,185196,,1645,1
1620713822144,185216,,1664,1
1620713822144,185236,,1765,1
1620713822144,185256,,1937,1
1620713822144,185276,,2179,1
1620713822144,185296,,2434,1
1620713822144,185316,,2591,1
1620713822144,185337,,2643,1
1620713822144,185357,,2576,1
1620713822647,185377,,2387,1
1620713822647,185397,,2272,1
1620713822647,185417,,2179,1
1620713822647,185437,,2105,1
1620713822647,185457,,1925,1
1620713822647,185477,,1759,1
1620713822647,185497,,1653,1
1620713822647,185517,,1593,1
1620713822647,185537,,1583,1
1620713822647,185558,,1611,1
1620713822647,185578,,1641,1
1620713822647,185598,,1706,1
1620713822647,185618,,1731,1
1620713822647,185638,,1715,1
1620713822647,185658,,1661,1
1620713822647,185678,,1563,1
1620713822647,185698,,1498,1
1620713822647,185718,,1422,1
1620713822647,185738,,1360,1
1620713822647,185758,,1334,1
1620713822647,185779,,1337,1
1620713822647,185799,,1419,1
1620713822647,185819,,1495,1
1620713822647,185839,,1589,1
1620713822647,185859,,1679,1
1620713823145,185880,,1687,1
1620713823145,185900,,1808,1
1620713823145,185920,,1966,1
1620713823145,185940,,2096,1
1620713823145,185960,,2105,1
1620713823145,185980,,2064,1
1620713823145,186001,,2124,1
1620713823145,186021,,2195,1
1620713823145,186041,,2285,1
1620713823145,186061,,2346,1
1620713823145,186081,,2327,1
1620713823145,186101,,2330,1
1620713823145,186121,,2255,1
1620713823145,186141,,2134,1
1620713823145,186161,,2006,1
1620713823145,186181,,1856,1
1620713823145,186201,,1801,1
1620713823145,186222,,1744,1
1620713823145,186242,,1707,1
1620713823145,186262,,1693,1
1620713823145,186282,,1680,1
1620713823145,186302,,1745,1
1620713823145,186322,,1783,1
1620713823145,186342,,1790,1
1620713823145,186362,,1775,1
1620713823655,186382,,1677,1
1620713823655,186402,,1708,1
1620713823655,186422,,1794,1
1620713823655,186443,,1849,1
1620713823655,186463,,1793,1
1620713823655,186483,,1715,1
1620713823655,186503,,1649,1
1620713823655,186523,,1633,1
1620713823655,186543,,1609,1
1620713823655,186563,,1585,1
1620713823655,186583,,1565,1
1620713823655,186603,,1535,1
1620713823655,186623,,1552,1
1620713823655,186643,,1559,1
1620713823655,186664,,1619,1
1620713823655,186684,,1779,1
1620713823655,186704,,1990,1
1620713823655,186724,,2263,1
1620713823655,186744,,2459,1
1620713823655,186764,,2567,1
1620713823655,186784,,2557,1
1620713823655,186804,,2446,1
1620713823655,186824,,2334,1
1620713823655,186844,,2182,1
1620713823655,186864,,2028,1
1620713824160,186884,,1811,1
1620713824160,186904,,1744,1
1620713824160,186924,,1744,1
1620713824160,186944,,1781,1
1620713824160,186964,,1719,1
1620713824160,186984,,1674,1
1620713824160,187004,,1616,1
1620713824160,187024,,1664,1
1620713824160,187044,,1680,1
1620713824160,187064,,1686,1
1620713824160,187084,,1683,1
1620713824160,187105,,1637,1
1620713824160,187125,,1663,1
1620713824160,187145,,1659,1
1620713824160,187165,,1638,1
1620713824160,187185,,1616,1
1620713824160,187205,,1559,1
1620713824160,187225,,1588,1
1620713824160,187245,,1617,1
1620713824160,187265,,1607,1
1620713824160,187285,,1584,1
1620713824160,187305,,1551,1
1620713824160,187326,,1553,1
1620713824160,187346,,1568,1
1620713824160,187366,,1579,1
1620713824660,187386,,1531,1
1620713824660,187406,,1680,1
1620713824660,187426,,1968,1
1620713824660,187446,,2267,1
1620713824660,187466,,2448,1
1620713824660,187486,,2551,1
1620713824660,187506,,2570,1
1620713824660,187526,,2500,1
1620713824660,187547,,2393,1
1620713824660,187567,,2237,1
1620713824660,187587,,2069,1
1620713824660,187607,,1905,1
1620713824660,187627,,1758,1
1620713824660,187647,,1671,1
1620713824660,187667,,1597,1
1620713824660,187687,,1550,1
1620713824660,187707,,1533,1
1620713824660,187727,,1547,1
1620713824660,187747,,1603,1
1620713824660,187768,,1648,1
1620713824660,187788,,1676,1
1620713824660,187808,,1696,1
1620713824660,187828,,1678,1
1620713824660,187848,,1698,1
1620713824660,187868,,1681,1
1620713825156,187888,,1574,1
1620713825156,187908,,1587,1
1620713825156,187928,,1665,1
1620713825156,187948,,1738,1
1620713825156,187968,,1691,1
1620713825156,187989,,1630,1
1620713825156,188009,,1582,1
1620713825156,188029,,1518,1
1620713825156,188049,,1551,1
1620713825156,188069,,1557,1
1620713825156,188089,,1555,1
1620713825156,188109,,1563,1
1620713825156,188129,,1563,1
1620713825156,188149,,1701,1
1620713825156,188169,,1862,1
1620713825156,188189,,2071,1
1620713825156,188210,,2267,1
1620713825156,188230,,2379,1
1620713825156,188250,,2499,1
1620713825156,188270,,2499,1
1620713825156,188290,,2421,1
1620713825156,188310,,2306,1
1620713825156,188330,,2158,1
1620713825156,188350,,2071,1
1620713825156,188370,,1967,1
1620713825658,188391,,1793,1
1620713825658,188411,,1768,1
1620713825658,188432,,1818,1
1620713825658,188452,,1918,1
1620713825658,188472,,1920,1
1620713825658,188492,,1884,1
1620713825658,188512,,1846,1
1620713825658,188532,,1817,1
1620713825658,188552,,1809,1
1620713825658,188572,,1815,1
1620713825658,188592,,1808,1
1620713825658,188612,,1796,1
1620713825658,188632,,1776,1
1620713825658,188652,,1744,1
1620713825658,188672,,1742,1
1620713825658,188692,,1722,1
1620713825658,188712,,1689,1
1620713825658,188732,,1672,1
1620713825658,188752,,1649,1
1620713825658,188772,,1687,1
1620713825658,188792,,1690,1
1620713825658,188812,,1664,1
1620713825658,188832,,1641,1
1620713825658,188852,,1590,1
1620713825658,188873,,1635,1
1620713826159,188894,,1652,1
1620713826159,188914,,1874,1
1620713826159,188934,,2189,1
1620713826159,188954,,2487,1
1620713826159,188974,,2683,1
1620713826159,188994,,2741,1
1620713826159,189014,,2703,1
1620713826159,189034,,2603,1
1620713826159,189054,,2436,1
1620713826159,189074,,2323,1
1620713826159,189095,,2174,1
1620713826159,189115,,2018,1
1620713826159,189135,,1891,1
1620713826159,189155,,1751,1
1620713826159,189175,,1792,1
1620713826159,189195,,1822,1
1620713826159,189215,,1856,1
1620713826159,189235,,1887,1
1620713826159,189255,,1873,1
1620713826159,189275,,1927,1
1620713826159,189295,,1879,1
1620713826159,189316,,1832,1
1620713826159,189336,,1857,1
1620713826159,189356,,1901,1
1620713826159,189376,,1840,1
1620713826660,189396,,1811,1
1620713826660,189416,,1802,1
1620713826660,189436,,1826,1
1620713826660,189456,,1820,1
1620713826660,189476,,1786,1
1620713826660,189496,,1727,1
1620713826660,189516,,1680,1
1620713826660,189537,,1651,1
1620713826660,189557,,1634,1
1620713826660,189577,,1647,1
1620713826660,189597,,1694,1
1620713826660,189617,,1777,1
1620713826660,189637,,1927,1
1620713826660,189657,,2134,1
1620713826660,189677,,2355,1
1620713826660,189697,,2535,1
1620713826660,189717,,2603,1
1620713826660,189737,,2576,1
1620713826660,189758,,2451,1
1620713826660,189778,,2313,1
1620713826660,189798,,2194,1
1620713826660,189818,,2064,1
1620713826660,189838,,1930,1
1620713826660,189858,,1814,1
1620713826660,189878,,1721,1
1620713827164,189898,,1595,1
1620713827164,189918,,1648,1
1620713827164,189938,,1712,1
1620713827164,189958,,1833,1
1620713827164,189979,,1813,1
1620713827164,189999,,1781,1
1620713827164,190019,,1716,1
1620713827164,190039,,1647,1
1620713827164,190059,,1599,1
1620713827164,190079,,1549,1
1620713827164,190099,,1584,1
1620713827164,190119,,1587,1
1620713827164,190139,,1584,1
1620713827164,190159,,1581,1
1620713827164,190179,,1549,1
1620713827164,190200,,1591,1
1620713827164,190220,,1606,1
1620713827164,190240,,1604,1
1620713827164,190260,,1600,1
1620713827164,190280,,1565,1
1620713827164,190300,,1629,1
1620713827164,190320,,1709,1
1620713827164,190340,,1841,1
1620713827164,190360,,2032,1
1620713827164,190380,,2201,1
1620713827670,190400,,2301,1
1620713827670,190421,,2419,1
1620713827670,190441,,2475,1
1620713827670,190461,,2483,1
1620713827670,190481,,2301,1
1620713827670,190501,,2139,1
1620713827670,190521,,1970,1
1620713827670,190541,,1827,1
1620713827670,190561,,1718,1
1620713827670,190581,,1637,1
1620713827670,190601,,1621,1
1620713827670,190621,,1647,1
1620713827670,190642,,1667,1
1620713827670,190662,,1694,1
1620713827670,190682,,1712,1
1620713827670,190702,,1744,1
1620713827670,190722,,1774,1
1620713827670,190742,,1766,1
1620713827670,190762,,1744,1
1620713827670,190782,,1711,1
1620713827670,190802,,1646,1
1620713827670,190822,,1632,1
1620713827670,190842,,1595,1
1620713827670,190863,,1553,1
1620713827670,190883,,1521,1
1620713828174,190903,,1438,1
1620713828174,190923,,1498,1
1620713828174,190943,,1618,1
1620713828174,190963,,1711,1
1620713828174,190983,,1692,1
1620713828174,191003,,1664,1
1620713828174,191023,,1750,1
1620713828174,191043,,1887,1
1620713828174,191063,,2075,1
1620713828174,191084,,2269,1
1620713828174,191104,,2371,1
1620713828174,191124,,2437,1
1620713828174,191144,,2398,1
1620713828174,191164,,2302,1
1620713828174,191184,,2177,1
1620713828174,191204,,2023,1
1620713828174,191224,,1945,1
1620713828174,191244,,1847,1
1620713828174,191264,,1771,1
1620713828174,191284,,1714,1
1620713828174,191305,,1678,1
1620713828174,191325,,1737,1
1620713828174,191345,,1771,1
1620713828174,191365,,1797,1
1620713828174,191385,,1808,1
1620713828674,191405,,1741,1
1620713828674,191425,,1778,1
1620713828674,191445,,1846,1
1620713828674,191465,,1935,1
1620713828674,191485,,1882,1
1620713828674,191505,,1777,1
1620713828674,191525,,1746,1
1620713828674,191545,,1710,1
1620713828674,191565,,1684,1
1620713828674,191585,,1677,1
1620713828674,191605,,1653,1
1620713828674,191625,,1648,1
1620713828674,191645,,1667,1
1620713828674,191665,,1681,1
1620713828674,191685,,1745,1
1620713828674,191705,,1882,1
1620713828674,191725,,2121,1
1620713828674,191746,,2368,1
1620713828674,191766,,2553,1
1620713828674,191786,,2642,1
1620713828674,191806,,2626,1
1620713828674,191826,,2519,1
1620713828674,191846,,2405,1
1620713828674,191866,,2253,1
1620713828674,191886,,2094,1
1620713829215,191906,,1854,1
1620713829215,191926,,1783,1
1620713829215,191946,,1811,1
1620713829215,191967,,1857,1
1620713829215,191987,,1822,1
1620713829215,192007,,1792,1
1620713829215,192027,,1762,1
1620713829215,192047,,1779,1
1620713829215,192067,,1777,1
1620713829215,192087,,1766,1
1620713829215,192107,,1743,1
1620713829215,192127,,1697,1
1620713829215,192147,,1712,1
1620713829215,192167,,1690,1
1620713829215,192188,,1674,1
1620713829215,192208,,1653,1
1620713829215,192228,,1584,1
1620713829215,192248,,1653,1
1620713829215,192268,,1671,1
1620713829215,192288,,1664,1
1620713829215,192308,,1654,1
1620713829215,192328,,1606,1
1620713829215,192348,,1674,1
1620713829215,192368,,1783,1
1620713829215,192388,,1987,1
1620713829682,192408,,2187,1
1620713829682,192428,,2463,0
1620713829682,192448,,2743,0
1620713829682,192468,,2938,0
1620713829682,192488,,2865,0
1620713829682,192508,,2687,0
1620713829682,192528,,2435,0
1620713829682,192548,,2273,0
1620713829682,192568,,2127,0
1620713829682,192588,,1983,0
1620713829682,192608,,1870,0
1620713829682,192629,,1776,0
1620713829682,192649,,1753,0
1620713829682,192669,,1770,0
1620713829682,192689,,1787,0
1620713829682,192709,,1811,0
1620713829682,192729,,1834,0
1620713829682,192749,,1831,0
1620713829682,192769,,1840,0
1620713829682,192789,,1807,0
1620713829682,192809,,1761,0
1620713829682,192829,,1712,0
1620713829682,192850,,1666,0
1620713829682,192870,,1657,0
1620713829682,192890,,1637,0
1620713830177,192910,,1534,0
1620713830177,192930,,1570,0
1620713830177,192950,,1671,0
1620713830177,192970,,1746,0
1620713830177,192990,,1719,0
1620713830177,193010,,1697,0
1620713830177,193030,,1737,0
1620713830177,193050,,1887,0
1620713830177,193071,,2173,0
1620713830177,193091,,2448,0
1620713830177,193111,,2667,0
1620713830177,193131,,2765,0
1620713830177,193151,,2708,0
1620713830177,193171,,2613,0
1620713830177,193191,,2425,0
1620713830177,193211,,2240,0
1620713830177,193231,,2069,0
1620713830177,193251,,1879,0
1620713830177,193271,,1802,0
1620713830177,193292,,1729,0
1620713830177,193312,,1690,0
1620713830177,193332,,1683,0
1620713830177,193352,,1662,0
1620713830177,193372,,1730,0
1620713830177,193392,,1767,0
1620713830683,193412,,1689,0
1620713830683,193432,,1714,1
1620713830683,193452,,1741,1
1620713830683,193472,,1835,1
1620713830683,193492,,1763,1
1620713830683,193513,,1664,1
1620713830683,193533,,1586,1
1620713830683,193553,,1495,1
1620713830683,193573,,1488,1
1620713830683,193593,,1483,1
1620713830683,193613,,1473,1
1620713830683,193633,,1466,1
1620713830683,193653,,1456,1
1620713830683,193673,,1488,1
1620713830683,193693,,1581,1
1620713830683,193713,,1733,1
1620713830683,193734,,1994,1
1620713830683,193754,,2263,1
1620713830683,193774,,2491,1
1620713830683,193794,,2661,1
1620713830683,193814,,2679,1
1620713830683,193834,,2581,1
1620713830683,193854,,2418,1
1620713830683,193874,,2230,1
1620713830683,193894,,2073,1
1620713831189,193915,,1817,1
1620713831189,193935,,1719,1
1620713831189,193956,,1715,1
1620713831189,193976,,1744,1
1620713831189,193996,,1737,1
1620713831189,194016,,1708,1
1620713831189,194036,,1686,1
1620713831189,194056,,1679,1
1620713831189,194076,,1669,1
1620713831189,194096,,1703,1
1620713831189,194116,,1698,1
1620713831189,194136,,1679,1
1620713831189,194156,,1655,1
1620713831189,194177,,1554,1
1620713831189,194197,,1563,1
1620713831189,194217,,1603,1
1620713831189,194237,,1678,1
1620713831189,194257,,1743,1
1620713831189,194277,,1634,1
1620713831189,194297,,1576,1
1620713831189,194317,,1603,1
1620713831189,194337,,1680,1
1620713831189,194357,,1796,1
1620713831189,194377,,1814,1
1620713831189,194397,,1953,1
1620713831693,194418,,2240,1
1620713831693,194438,,2495,1
1620713831693,194458,,2703,1
1620713831693,194478,,2725,1
1620713831693,194498,,2622,1
1620713831693,194518,,2413,1
1620713831693,194538,,2192,1
1620713831693,194558,,1984,1
1620713831693,194578,,1781,1
1620713831693,194598,,1712,1
1620713831693,194619,,1661,1
1620713831693,194639,,1639,1
1620713831693,194659,,1655,1
1620713831693,194679,,1663,1
1620713831693,194699,,1735,1
1620713831693,194719,,1776,1
1620713831693,194739,,1783,1
1620713831693,194759,,1774,1
1620713831693,194779,,1727,1
1620713831693,194799,,1685,1
1620713831693,194819,,1660,1
1620713831693,194840,,1616,1
1620713831693,194860,,1577,1
1620713831693,194880,,1532,1
1620713831693,194900,,1524,1
1620713832187,194920,,1456,1
1620713832187,194940,,1501,1
1620713832187,194960,,1594,1
1620713832187,194980,,1683,1
1620713832187,195000,,1637,1
1620713832187,195020,,1606,1
1620713832187,195040,,1610,1
1620713832187,195061,,1720,1
1620713832187,195081,,1923,1
1620713832187,195101,,2155,1
1620713832187,195121,,2390,1
1620713832187,195141,,2513,1
1620713832187,195161,,2529,1
1620713832187,195181,,2463,1
1620713832187,195201,,2326,1
1620713832187,195221,,2219,1
1620713832187,195241,,2087,1
1620713832187,195261,,1953,1
1620713832187,195282,,1835,1
1620713832187,195302,,1732,1
1620713832187,195322,,1712,1
1620713832187,195342,,1689,1
1620713832187,195362,,1677,1
1620713832187,195382,,1679,1
1620713832187,195402,,1664,1
1620713832690,195422,,1649,1
1620713832690,195442,,1713,1
1620713832690,195462,,1797,1
1620713832690,195482,,1853,1
1620713832690,195503,,1741,1
1620713832690,195523,,1680,1
1620713832690,195543,,1609,1
1620713832690,195563,,1535,1
1620713832690,195583,,1490,1
1620713832690,195603,,1442,1
1620713832690,195623,,1488,1
1620713832690,195643,,1509,1
1620713832690,195663,,1520,1
1620713832690,195683,,1515,1
1620713832690,195703,,1474,1
1620713832690,195723,,1504,1
1620713832690,195743,,1535,1
1620713832690,195763,,1614,1
1620713832690,195783,,1765,1
1620713832690,195803,,1967,1
1620713832690,195823,,2192,1
1620713832690,195843,,2386,1
1620713832690,195863,,2482,1
1620713832690,195883,,2491,1
