localTime,remoteTime,label,bvp,signalOK
1620713770913,80334,,2256,0
1620713770913,80354,,2062,0
1620713770913,80374,,2043,0
1620713770913,80394,,1936,0
1620713770913,80414,,1831,0
1620713770913,80434,,1776,0
1620713770913,80454,,1744,0
1620713770913,80474,,1913,0
1620713770913,80494,,1968,0
1620713770913,80514,,1944,0
1620713770913,80534,,1918,0
1620713770913,80554,,1868,0
1620713770913,80575,,2000,0
1620713770913,80595,,2033,0
1620713770913,80615,,1951,0
1620713770913,80635,,1883,0
1620713770913,80655,,1808,0
1620713770913,80675,,1897,0
1620713770913,80695,,1966,0
1620713770913,80715,,1899,0
1620713770913,80735,,1838,0
1620713770913,80755,,1755,0
1620713770913,80775,,1809,0
1620713770913,80796,,1927,0
1620713770913,80816,,1968,0
1620713771410,80836,,1970,0
1620713771410,80856,,1968,0
1620713771410,80876,,1921,0
1620713771410,80896,,1907,0
1620713771410,80916,,1824,0
1620713771410,80936,,1707,0
1620713771410,80956,,1614,0
1620713771410,80976,,1675,0
1620713771410,80996,,1833,0
1620713771410,81017,,1987,0
1620713771410,81037,,2133,0
1620713771410,81057,,2163,0
1620713771410,81077,,2173,0
1620713771410,81097,,2240,0
1620713771410,81117,,2258,0
1620713771410,81137,,2240,0
1620713771410,81157,,2160,0
1620713771410,81177,,2001,0
1620713771410,81197,,1998,0
1620713771410,81217,,2006,0
1620713771410,81238,,2007,0
1620713771410,81258,,2003,0
1620713771410,81278,,1870,0
1620713771410,81298,,1895,0
1620713771410,81318,,1935,0
1620713771914,81339,,1968,0
1620713771914,81359,,1993,0
1620713771914,81379,,1990,0
1620713771914,81399,,1973,0
1620713771914,81419,,1962,0
1620713771914,81439,,1838,0
1620713771914,81460,,1758,0
1620713771914,81480,,1715,0
1620713771914,81500,,1873,0
1620713771914,81520,,1886,0
1620713771914,81540,,1837,0
1620713771914,81560,,1796,0
1620713771914,81580,,1761,0
1620713771914,81600,,1915,0
1620713771914,81620,,1933,0
1620713771914,81640,,1872,0
1620713771914,81660,,1821,0
1620713771914,81681,,1771,0
1620713771914,81701,,1893,0
1620713771914,81721,,1936,0
1620713771914,81741,,1862,0
1620713771914,81761,,1808,0
1620713771914,81781,,1732,0
1620713771914,81801,,1831,0
1620713771914,81821,,1903,0
1620713772417,81842,,1848,0
1620713772417,81862,,1938,0
1620713772417,81882,,2039,0
1620713772417,81903,,2083,0
1620713772417,81923,,2057,0
1620713772417,81943,,2058,0
1620713772417,81963,,2066,0
1620713772417,81983,,2026,0
1620713772417,82003,,2113,0
1620713772417,82023,,2195,0
1620713772417,82043,,2107,0
1620713772417,82063,,1995,0
1620713772417,82083,,1883,0
1620713772417,82103,,1904,0
1620713772417,82124,,2011,0
1620713772417,82144,,1950,0
1620713772417,82164,,1892,0
1620713772417,82184,,1840,0
1620713772417,82204,,1898,0
1620713772417,82224,,1904,0
1620713772417,82244,,1910,0
1620713772417,82264,,1919,0
1620713772417,82284,,1906,0
1620713772417,82304,,1931,0
1620713772417,82324,,2063,0
1620713772917,82344,,1995,0
1620713772917,82364,,2015,0
1620713772917,82384,,2037,0
1620713772917,82404,,1962,0
1620713772917,82424,,1961,0
1620713772917,82444,,1840,0
1620713772917,82464,,1725,0
1620713772917,82484,,1675,0
1620713772917,82504,,1696,0
1620713772917,82524,,1731,0
1620713772917,82544,,1763,0
1620713772917,82565,,1792,0
1620713772917,82585,,1823,0
1620713772917,82605,,1859,0
1620713772917,82625,,1892,0
1620713772917,82645,,1904,0
1620713772917,82665,,1954,0
1620713772917,82685,,2031,0
1620713772917,82705,,2081,0
1620713772917,82725,,2246,0
1620713772917,82745,,2337,0
1620713772917,82765,,2346,0
1620713772917,82786,,2288,0
1620713772917,82806,,2231,0
1620713772917,82826,,2064,0
1620713773420,82846,,1872,0
1620713773420,82866,,1883,0
1620713773420,82886,,1933,0
1620713773420,82906,,1862,0
1620713773420,82926,,1869,0
1620713773420,82946,,1918,0
1620713773420,82966,,1851,0
1620713773420,82986,,1809,1
1620713773420,83007,,1765,1
1620713773420,83027,,1860,1
1620713773420,83047,,1993,1
1620713773420,83067,,1958,1
1620713773420,83087,,1904,1
1620713773420,83107,,1818,1
1620713773420,83127,,1864,1
1620713773420,83147,,1966,1
1620713773420,83167,,1904,1
1620713773420,83187,,1840,1
1620713773420,83207,,1765,1
1620713773420,83228,,1802,1
1620713773420,83248,,1792,1
1620713773420,83268,,1777,1
1620713773420,83288,,1789,1
1620713773420,83308,,1793,1
1620713773420,83328,,1818,1
1620713773922,83348,,1939,1
1620713773922,83368,,2026,1
1620713773922,83388,,2035,1
1620713773922,83408,,1983,1
1620713773922,83428,,1811,1
1620713773922,83449,,1878,1
1620713773922,83469,,1856,1
1620713773922,83489,,1877,1
1620713773922,83509,,1936,1
1620713773922,83529,,2055,1
1620713773922,83549,,2137,1
1620713773922,83569,,2167,1
1620713773922,83589,,2160,1
1620713773922,83609,,2128,1
1620713773922,83629,,2074,1
1620713773922,83649,,2134,1
1620713773922,83670,,2173,1
1620713773922,83690,,2161,1
1620713773922,83710,,2114,1
1620713773922,83730,,2054,1
1620713773922,83750,,2026,1
1620713773922,83770,,1917,1
1620713773922,83790,,1790,1
1620713773922,83810,,1735,1
1620713773922,83830,,1710,1
1620713774424,83850,,1843,1
1620713774424,83870,,1974,1
1620713774424,83891,,2047,1
1620713774424,83911,,2109,1
1620713774424,83931,,1957,1
1620713774424,83951,,1902,1
1620713774424,83971,,1788,1
1620713774424,83991,,1719,1
1620713774424,84011,,1705,1
1620713774424,84031,,1681,1
1620713774424,84051,,1806,1
1620713774424,84071,,1825,1
1620713774424,84091,,1830,1
1620713774424,84112,,1832,1
1620713774424,84132,,1807,1
1620713774424,84152,,1865,1
1620713774424,84172,,1856,1
1620713774424,84192,,1845,1
1620713774424,84212,,1830,1
1620713774424,84232,,1791,1
1620713774424,84252,,1842,1
1620713774424,84272,,1830,1
1620713774424,84292,,1818,1
1620713774424,84312,,1827,1
1620713774424,84333,,1843,1
1620713774927,84354,,1989,1
1620713774927,84374,,2199,1
1620713774927,84394,,2366,1
1620713774927,84414,,2349,1
1620713774927,84434,,2209,1
1620713774927,84454,,2105,1
1620713774927,84474,,2154,1
1620713774927,84494,,2047,1
1620713774927,84514,,1938,1
1620713774927,84534,,1877,1
1620713774927,84554,,1872,1
1620713774927,84574,,1874,1
1620713774927,84594,,1876,1
1620713774927,84614,,1890,1
1620713774927,84634,,1904,1
1620713774927,84654,,1946,1
1620713774927,84674,,1971,1
1620713774927,84694,,1967,1
1620713774927,84714,,1951,1
1620713774927,84734,,1938,1
1620713774927,84754,,1886,1
1620713774927,84775,,1975,1
1620713774927,84795,,2037,1
1620713774927,84815,,2042,1
1620713774927,84835,,2007,1
1620713775427,84855,,1961,1
1620713775427,84875,,1913,1
1620713775427,84895,,1904,1
1620713775427,84915,,1813,1
1620713775427,84935,,1691,1
1620713775427,84955,,1635,1
1620713775427,84975,,1673,1
1620713775427,84996,,1701,1
1620713775427,85016,,1742,1
1620713775427,85036,,1785,1
1620713775427,85056,,1776,1
1620713775427,85076,,1887,1
1620713775427,85096,,1999,1
1620713775427,85116,,2105,1
1620713775427,85136,,2062,1
1620713775427,85156,,1977,1
1620713775427,85176,,2077,1
1620713775427,85196,,2209,1
1620713775427,85217,,2326,1
1620713775427,85237,,2250,1
1620713775427,85257,,2095,1
1620713775427,85277,,2015,1
1620713775427,85297,,1937,1
1620713775427,85317,,1898,1
1620713775427,85337,,1888,1
1620713775931,85357,,1877,1
1620713775931,85377,,1994,1
1620713775931,85397,,2103,1
1620713775931,85417,,2080,1
1620713775931,85438,,1962,1
1620713775931,85458,,1874,1
1620713775931,85478,,1903,1
1620713775931,85498,,1904,1
1620713775931,85518,,1898,1
1620713775931,85538,,1886,1
1620713775931,85558,,1875,1
1620713775931,85578,,1901,1
1620713775931,85598,,1905,1
1620713775931,85618,,1886,1
1620713775931,85638,,1872,1
1620713775931,85659,,1853,1
1620713775931,85679,,1863,1
1620713775931,85699,,1862,1
1620713775931,85719,,1845,1
1620713775931,85739,,1828,1
1620713775931,85759,,1823,1
1620713775931,85779,,1840,1
1620713775931,85799,,1849,1
1620713775931,85819,,1837,1
1620713775931,85839,,1824,1
1620713776438,85859,,1819,1
1620713776438,85880,,1927,1
1620713776438,85900,,2000,1
1620713776438,85920,,1947,1
1620713776438,85940,,1814,1
1620713776438,85960,,1725,1
1620713776438,85980,,1691,1
1620713776438,86000,,1765,1
1620713776438,86020,,1855,1
1620713776438,86040,,1978,1
1620713776438,86060,,2106,1
1620713776438,86080,,2181,1
1620713776438,86101,,2260,1
1620713776438,86121,,2243,1
1620713776438,86141,,2194,1
1620713776438,86161,,2129,1
1620713776438,86181,,2038,1
1620713776438,86201,,2062,1
1620713776438,86221,,2011,1
1620713776438,86241,,1969,1
1620713776438,86261,,1909,1
1620713776438,86281,,2001,1
1620713776438,86301,,2078,1
1620713776438,86322,,2096,1
1620713776438,86342,,1975,1
1620713776936,86363,,1904,1
1620713776936,86383,,1986,1
1620713776936,86403,,2018,1
1620713776936,86423,,2015,1
1620713776936,86443,,1890,1
1620713776936,86463,,1799,1
1620713776936,86483,,1747,1
1620713776936,86503,,1772,1
1620713776936,86523,,1780,1
1620713776936,86544,,1783,1
1620713776936,86564,,1798,1
1620713776936,86584,,1797,1
1620713776936,86604,,1851,1
1620713776936,86624,,1866,1
1620713776936,86644,,1857,1
1620713776936,86664,,1846,1
1620713776936,86684,,1840,1
1620713776936,86704,,1859,1
1620713776936,86724,,1861,1
1620713776936,86744,,1840,1
1620713776936,86765,,1827,1
1620713776936,86785,,1808,1
1620713776936,86805,,1821,1
1620713776936,86825,,1827,1
1620713776936,86845,,1814,1
1620713777438,86865,,1802,1
1620713777438,86885,,1904,1
1620713777438,86905,,2000,1
1620713777438,86925,,1947,1
1620713777438,86945,,1872,1
1620713777438,86965,,1858,1
1620713777438,86986,,1922,1
1620713777438,87006,,2015,1
1620713777438,87026,,2114,1
1620713777438,87046,,2143,1
1620713777438,87066,,2135,1
1620713777438,87086,,2110,1
1620713777438,87106,,2063,1
1620713777438,87126,,2039,1
1620713777438,87146,,1991,1
1620713777438,87166,,1949,1
1620713777438,87186,,1920,1
1620713777438,87207,,1879,1
1620713777438,87227,,1953,1
1620713777438,87247,,1937,1
1620713777438,87267,,1924,1
1620713777438,87287,,1917,1
1620713777438,87307,,1886,1
1620713777438,87327,,1940,1
1620713777438,87347,,1923,1
1620713777942,87367,,1903,1
1620713777942,87387,,1997,1
1620713777942,87407,,2059,1
1620713777942,87427,,2067,1
1620713777942,87447,,1917,1
1620713777942,87467,,1799,1
1620713777942,87487,,1727,1
1620713777942,87507,,1687,1
1620713777942,87527,,1743,1
1620713777942,87547,,1763,1
1620713777942,87567,,1777,1
1620713777942,87587,,1797,1
1620713777942,87607,,1806,1
1620713777942,87627,,1855,1
1620713777942,87648,,1863,1
1620713777942,87668,,1852,1
1620713777942,87688,,1837,1
1620713777942,87708,,1823,1
1620713777942,87728,,1827,1
1620713777942,87748,,1821,1
1620713777942,87768,,1809,1
1620713777942,87788,,1834,1
1620713777942,87808,,1899,1
1620713777942,87828,,2011,1
1620713777942,87848,,2119,1
1620713778441,87868,,2163,0
1620713778441,87888,,2301,0
1620713778441,87908,,2374,0
1620713778441,87928,,2315,0
1620713778441,87948,,2151,0
1620713778441,87968,,1989,0
1620713778441,87988,,1883,0
1620713778441,88008,,1834,0
1620713778441,88028,,1825,0
1620713778441,88048,,1870,0
1620713778441,88068,,1879,0
1620713778441,88089,,1897,0
1620713778441,88109,,1907,0
1620713778441,88129,,1908,0
1620713778441,88149,,1957,0
1620713778441,88169,,1951,0
1620713778441,88189,,1936,0
1620713778441,88209,,1919,0
1620713778441,88229,,1871,0
1620713778441,88249,,1911,0
1620713778441,88269,,1885,0
1620713778441,88289,,1863,0
1620713778441,88310,,1840,0
1620713778441,88330,,1793,0
1620713778441,88350,,1841,0
1620713778944,88371,,1830,0
1620713778944,88391,,1936,0
1620713778944,88411,,2032,0
1620713778944,88431,,1937,0
1620713778944,88451,,1872,0
1620713778944,88471,,1766,0
1620713778944,88491,,1702,0
1620713778944,88511,,1700,0
1620713778944,88532,,1689,0
1620713778944,88552,,1778,0
1620713778944,88572,,1797,0
1620713778944,88592,,1801,0
1620713778944,88612,,1799,0
1620713778944,88632,,1787,0
1620713778944,88652,,1830,0
1620713778944,88672,,1826,0
1620713778944,88692,,1811,0
1620713778944,88712,,1802,0
1620713778944,88732,,1827,0
1620713778944,88752,,1918,0
1620713778944,88772,,2019,0
1620713778944,88792,,2114,0
1620713778944,88812,,2183,0
1620713778944,88832,,2208,0
1620713778944,88852,,2224,0
1620713779446,88872,,2193,1
1620713779446,88892,,2235,1
1620713779446,88912,,2250,1
1620713779446,88932,,2154,1
1620713779446,88952,,1981,1
1620713779446,88973,,1923,1
1620713779446,88993,,1840,1
1620713779446,89013,,1808,1
1620713779446,89033,,1808,1
1620713779446,89053,,1833,1
1620713779446,89073,,1888,1
1620713779446,89093,,1904,1
1620713779446,89113,,1917,1
1620713779446,89133,,1923,1
1620713779446,89153,,1921,1
1620713779446,89173,,1965,1
1620713779446,89194,,1942,1
1620713779446,89214,,1919,1
1620713779446,89234,,1883,1
1620713779446,89254,,1852,1
1620713779446,89274,,1872,1
1620713779446,89294,,1843,1
1620713779446,89314,,1827,1
1620713779446,89334,,1814,1
1620713779446,89354,,1789,1
1620713779954,89374,,1831,1
1620713779954,89394,,1937,1
1620713779954,89415,,2019,1
1620713779954,89435,,1985,1
1620713779954,89455,,1805,1
1620713779954,89475,,1771,1
1620713779954,89495,,1715,1
1620713779954,89515,,1693,1
1620713779954,89535,,1701,1
1620713779954,89555,,1709,1
1620713779954,89575,,1774,1
1620713779954,89595,,1797,1
1620713779954,89615,,1803,1
1620713779954,89636,,1808,1
1620713779954,89656,,1823,1
1620713779954,89676,,1931,1
1620713779954,89696,,2021,1
1620713779954,89716,,2105,1
1620713779954,89736,,2160,1
1620713779954,89756,,2183,1
1620713779954,89776,,2187,1
1620713779954,89796,,2145,1
1620713779954,89816,,2075,1
1620713779954,89836,,1995,1
1620713779954,89857,,1933,1
1620713780450,89877,,1883,1
1620713780450,89897,,1966,1
1620713780450,89917,,2032,1
1620713780450,89937,,2063,1
1620713780450,89957,,1949,1
1620713780450,89977,,1870,1
1620713780450,89997,,1840,1
1620713780450,90017,,1819,1
1620713780450,90037,,1822,1
1620713780450,90057,,1838,1
1620713780450,90078,,1859,1
1620713780450,90098,,1903,1
1620713780450,90118,,1904,1
1620713780450,90138,,1892,1
1620713780450,90158,,1875,1
1620713780450,90178,,1863,1
1620713780450,90198,,1872,1
1620713780450,90218,,1851,1
1620713780450,90238,,1829,1
1620713780450,90258,,1814,1
1620713780450,90278,,1797,1
1620713780450,90299,,1840,1
1620713780450,90319,,1826,1
1620713780450,90339,,1810,1
1620713780450,90359,,1808,1
1620713780951,90379,,1799,1
1620713780951,90399,,1911,1
1620713780951,90419,,2003,1
1620713780951,90439,,1967,1
1620713780951,90459,,1850,1
1620713780951,90479,,1733,1
1620713780951,90499,,1783,1
1620713780951,90520,,1825,1
1620713780951,90540,,1901,1
1620713780951,90560,,2015,1
1620713780951,90580,,2100,1
1620713780951,90600,,2224,0
1620713780951,90620,,2247,0
1620713780951,90640,,2202,0
1620713780951,90660,,2143,0
1620713780951,90680,,2069,0
1620713780951,90700,,2055,0
1620713780951,90720,,2005,0
1620713780951,90741,,1951,0
1620713780951,90761,,1925,0
1620713780951,90781,,1914,0
1620713780951,90801,,1931,0
1620713780951,90821,,1941,0
1620713780951,90841,,1935,0
1620713780951,90861,,1931,0
1620713781453,90881,,1925,0
1620713781453,90901,,2031,0
1620713781453,90921,,2129,0
1620713781453,90941,,2089,0
1620713781453,90962,,1940,0
1620713781453,90982,,1842,0
1620713781453,91002,,1799,0
1620713781453,91022,,1791,0
1620713781453,91042,,1785,0
1620713781453,91062,,1786,0
1620713781453,91082,,1792,0
1620713781453,91102,,1809,0
1620713781453,91122,,1855,0
1620713781453,91142,,1860,0
1620713781453,91162,,1841,0
1620713781453,91183,,1830,0
1620713781453,91203,,1819,0
1620713781453,91223,,1843,0
1620713781453,91243,,1840,0
1620713781453,91263,,1831,0
1620713781453,91283,,1829,0
1620713781453,91303,,1808,0
1620713781453,91323,,1843,0
1620713781453,91343,,1838,0
1620713781453,91363,,1823,0
1620713781955,91383,,1810,0
1620713781955,91404,,1911,0
1620713781955,91424,,1998,0
1620713781955,91444,,1968,0
1620713781955,91464,,1915,0
1620713781955,91484,,1935,0
1620713781955,91504,,1981,0
1620713781955,91524,,2143,0
1620713781955,91544,,2197,0
1620713781955,91564,,2211,0
1620713781955,91584,,2192,0
1620713781955,91604,,2114,0
1620713781955,91624,,2128,0
1620713781955,91644,,2081,0
1620713781955,91664,,2024,0
1620713781955,91684,,1983,0
1620713781955,91704,,1941,0
1620713781955,91724,,1969,0
1620713781955,91744,,1970,0
1620713781955,91764,,1955,0
1620713781955,91784,,1938,0
1620713781955,91804,,1935,0
1620713781955,91824,,1962,0
1620713781955,91845,,1969,0
1620713781955,91865,,1954,0
1620713782458,91885,,1925,0
1620713782458,91905,,2007,0
1620713782458,91925,,2093,0
1620713782458,91945,,2043,0
1620713782458,91965,,1909,0
1620713782458,91985,,1803,0
1620713782458,92005,,1744,0
1620713782458,92025,,1744,0
1620713782458,92045,,1774,0
1620713782458,92066,,1790,0
1620713782458,92086,,1805,0
1620713782458,92106,,1815,0
1620713782458,92126,,1831,0
1620713782458,92146,,1866,0
1620713782458,92166,,1857,0
1620713782458,92186,,1855,0
1620713782458,92206,,1853,0
1620713782458,92226,,1814,0
1620713782458,92246,,1878,0
1620713782458,92266,,1855,0
1620713782458,92287,,1822,0
1620713782458,92307,,1803,0
1620713782458,92327,,1797,0
1620713782458,92347,,1958,0
1620713782458,92367,,2054,0
1620713782961,92387,,2133,0
1620713782961,92407,,2318,0
1620713782961,92427,,2414,0
1620713782961,92447,,2387,0
1620713782961,92467,,2203,0
1620713782961,92487,,2035,0
1620713782961,92508,,1911,0
1620713782961,92528,,1821,0
1620713782961,92548,,1858,0
1620713782961,92568,,1850,0
1620713782961,92588,,1849,0
1620713782961,92608,,1867,0
1620713782961,92628,,1861,0
1620713782961,92648,,1937,0
1620713782961,92668,,1965,0
1620713782961,92688,,1971,0
1620713782961,92708,,1968,0
1620713782961,92729,,1938,0
1620713782961,92749,,1968,0
1620713782961,92769,,1945,0
1620713782961,92789,,1907,0
1620713782961,92809,,1879,0
1620713782961,92829,,1867,0
1620713782961,92849,,1871,0
1620713782961,92869,,1858,0
1620713783463,92889,,1827,0
1620713783463,92909,,1920,0
1620713783463,92929,,2011,0
1620713783463,92950,,1986,0
1620713783463,92970,,1873,0
1620713783463,92990,,1774,0
1620713783463,93010,,1711,0
1620713783463,93030,,1689,0
1620713783463,93050,,1707,0
1620713783463,93070,,1758,0
1620713783463,93090,,1778,0
1620713783463,93110,,1803,0
1620713783463,93130,,1850,0
1620713783463,93150,,1934,0
1620713783463,93171,,2078,0
1620713783463,93191,,2182,0
1620713783463,93211,,2257,0
1620713783463,93231,,2304,0
1620713783463,93251,,2288,0
1620713783463,93271,,2273,0
1620713783463,93291,,2190,0
1620713783463,93311,,2107,0
1620713783463,93331,,2032,0
1620713783463,93351,,1968,0
1620713783463,93371,,1984,0
1620713783965,93391,,1936,0
1620713783965,93411,,2029,0
1620713783965,93431,,2115,0
1620713783965,93451,,2074,0
1620713783965,93471,,2007,0
1620713783965,93491,,1920,0
1620713783965,93511,,1871,0
1620713783965,93531,,1855,0
1620713783965,93551,,1813,0
1620713783965,93571,,1878,0
1620713783965,93591,,1997,0
1620713783965,93612,,2047,0
1620713783965,93632,,2038,0
1620713783965,93652,,2003,0
1620713783965,93672,,1966,0
1620713783965,93692,,1808,0
1620713783965,93712,,1699,0
1620713783965,93732,,1649,0
1620713783965,93752,,1644,0
1620713783965,93772,,1715,0
1620713783965,93792,,1761,0
1620713783965,93812,,1785,0
1620713783965,93833,,1813,0
1620713783965,93853,,1830,0
1620713783965,93873,,1857,0
1620713784472,93893,,1854,0
1620713784472,93913,,1950,0
1620713784472,93933,,2015,0
1620713784472,93953,,1968,0
1620713784472,93973,,1847,0
1620713784472,93993,,1777,0
1620713784472,94013,,1696,0
1620713784472,94033,,1662,0
1620713784472,94054,,1663,0
1620713784472,94074,,1715,0
1620713784472,94094,,1834,0
1620713784472,94114,,1964,0
1620713784472,94134,,2119,0
1620713784472,94154,,2249,0
1620713784472,94174,,2347,0
1620713784472,94194,,2384,0
1620713784472,94214,,2321,0
1620713784472,94234,,2228,0
1620713784472,94254,,2142,0
1620713784472,94275,,2080,0
1620713784472,94295,,2081,0
1620713784472,94315,,2028,0
1620713784472,94335,,1990,0
1620713784472,94355,,1967,0
1620713784472,94375,,1934,0
1620713784970,94395,,1959,0
1620713784970,94415,,2059,0
1620713784970,94435,,2151,0
1620713784970,94455,,2110,0
1620713784970,94475,,1961,0
1620713784970,94496,,1930,0
1620713784970,94516,,1872,0
1620713784970,94536,,1841,0
1620713784970,94556,,1834,0
1620713784970,94576,,1792,0
1620713784970,94596,,1868,0
1620713784970,94616,,1862,0
1620713784970,94636,,1843,0
1620713784970,94656,,1840,0
1620713784970,94676,,1809,0
1620713784970,94696,,1875,0
1620713784970,94717,,1872,0
1620713784970,94737,,1849,0
1620713784970,94757,,1837,0
1620713784970,94777,,1811,0
1620713784970,94797,,1845,0
1620713784970,94817,,1840,0
1620713784970,94837,,1824,0
1620713784970,94857,,1808,0
1620713784970,94877,,1789,0
1620713785478,94897,,1771,0
1620713785478,94917,,1881,0
1620713785478,94938,,1981,0
1620713785478,94958,,1967,0
1620713785478,94978,,1886,0
1620713785478,94998,,1907,0
1620713785478,95018,,2000,0
1620713785478,95038,,2096,0
1620713785478,95058,,2170,0
1620713785478,95078,,2212,0
1620713785478,95098,,2227,0
1620713785478,95118,,2221,0
1620713785478,95138,,2142,0
1620713785478,95159,,2061,1
1620713785478,95179,,1988,1
1620713785478,95199,,1943,1
1620713785478,95219,,1955,1
1620713785478,95239,,1916,1
1620713785478,95259,,1886,1
1620713785478,95279,,1877,1
1620713785478,95299,,1884,1
1620713785478,95319,,1931,1
1620713785478,95339,,1936,1
1620713785478,95359,,1925,1
1620713785478,95380,,1914,1
1620713785975,95401,,1899,1
1620713785975,95421,,2000,1
1620713785975,95441,,2062,1
1620713785975,95461,,2043,1
1620713785975,95481,,1904,1
1620713785975,95501,,1778,1
1620713785975,95521,,1766,1
1620713785975,95541,,1731,1
1620713785975,95561,,1731,1
1620713785975,95581,,1742,1
1620713785975,95602,,1726,1
1620713785975,95622,,1792,1
1620713785975,95642,,1791,1
1620713785975,95662,,1783,1
1620713785975,95682,,1781,1
1620713785975,95702,,1757,1
1620713785975,95722,,1821,1
1620713785975,95742,,1829,1
1620713785975,95762,,1830,1
1620713785975,95782,,1857,1
1620713785975,95802,,1903,1
1620713785975,95823,,2095,1
1620713785975,95843,,2221,1
1620713785975,95863,,2319,1
1620713785975,95883,,2377,1
1620713786477,95903,,2377,1
1620713786477,95923,,2480,1
1620713786477,95943,,2534,1
1620713786477,95963,,2453,1
1620713786477,95983,,2279,1
1620713786477,96003,,2133,1
1620713786477,96023,,2029,1
1620713786477,96044,,1936,1
1620713786477,96064,,1863,1
1620713786477,96084,,1821,1
1620713786477,96104,,1809,1
1620713786477,96124,,1835,1
1620713786477,96144,,1863,1
1620713786477,96164,,1878,1
1620713786477,96184,,1904,1
1620713786477,96204,,1907,1
1620713786477,96224,,1927,1
1620713786477,96244,,1939,1
1620713786477,96265,,1920,1
1620713786477,96285,,1899,1
1620713786477,96305,,1885,1
1620713786477,96325,,1872,1
1620713786477,96345,,1872,1
1620713786477,96365,,1827,1
1620713786477,96385,,1802,1
1620713786977,96405,,1765,1
1620713786977,96425,,1859,1
1620713786977,96445,,1971,1
1620713786977,96465,,1938,1
1620713786977,96486,,1817,1
1620713786977,96506,,1729,1
1620713786977,96526,,1647,1
1620713786977,96546,,1717,1
1620713786977,96566,,1727,1
1620713786977,96586,,1761,1
1620713786977,96606,,1854,1
1620713786977,96626,,1968,1
1620713786977,96646,,2183,1
1620713786977,96666,,2310,1
1620713786977,96686,,2377,1
1620713786977,96707,,2382,1
1620713786977,96727,,2305,1
1620713786977,96747,,2288,1
1620713786977,96767,,2190,1
1620713786977,96787,,2096,1
1620713786977,96807,,2025,1
1620713786977,96827,,1951,1
1620713786977,96847,,1970,1
1620713786977,96867,,1952,1
1620713786977,96887,,1934,1
1620713787480,96907,,1911,1
1620713787480,96928,,2036,1
1620713787480,96948,,2155,1
1620713787480,96968,,2110,1
1620713787480,96988,,1984,1
1620713787480,97008,,1900,1
1620713787480,97028,,1834,1
1620713787480,97048,,1849,1
1620713787480,97068,,1845,1
1620713787480,97088,,1840,1
1620713787480,97108,,1836,1
1620713787480,97128,,1827,1
1620713787480,97148,,1846,1
1620713787480,97168,,1856,1
1620713787480,97188,,1834,1
1620713787480,97208,,1808,1
1620713787480,97228,,1793,1
1620713787480,97248,,1795,1
1620713787480,97268,,1825,1
1620713787480,97288,,1949,1
1620713787480,97308,,2112,1
1620713787480,97328,,2176,1
1620713787480,97348,,2159,1
1620713787480,97369,,2304,1
1620713787480,97389,,2416,0
1620713787986,97409,,2448,0
1620713787986,97429,,2407,0
1620713787986,97449,,2353,0
1620713787986,97469,,2192,0
1620713787986,97489,,1979,0
1620713787986,97509,,1841,0
1620713787986,97529,,1777,0
1620713787986,97549,,1747,0
1620713787986,97569,,1821,0
1620713787986,97590,,1849,0
1620713787986,97610,,1882,0
1620713787986,97630,,1932,0
1620713787986,97650,,1952,0
1620713787986,97670,,2046,0
1620713787986,97690,,2039,0
1620713787986,97710,,2000,0
1620713787986,97730,,1951,0
1620713787986,97750,,1876,0
1620713787986,97770,,1895,0
1620713787986,97790,,1856,0
1620713787986,97811,,1817,0
1620713787986,97831,,1791,0
1620713787986,97851,,1746,0
1620713787986,97871,,1799,0
1620713787986,97891,,1793,0
1620713788486,97911,,1767,0
1620713788486,97931,,1874,0
1620713788486,97951,,1990,0
1620713788486,97971,,2073,0
1620713788486,97991,,2069,0
1620713788486,98011,,2117,0
1620713788486,98032,,2209,0
1620713788486,98052,,2275,0
1620713788486,98072,,2336,0
1620713788486,98092,,2326,0
1620713788486,98112,,2271,0
1620713788486,98132,,2202,0
1620713788486,98152,,2145,0
1620713788486,98172,,2107,0
1620713788486,98192,,2070,0
1620713788486,98212,,2016,0
1620713788486,98232,,1968,0
1620713788486,98253,,1936,0
1620713788486,98273,,1936,0
1620713788486,98293,,1966,0
1620713788486,98313,,1951,0
1620713788486,98333,,1931,0
1620713788486,98353,,1933,0
1620713788486,98373,,1927,0
1620713788486,98393,,1933,1
1620713788988,98414,,1884,1
1620713788988,98434,,1954,1
1620713788988,98454,,2029,1
1620713788988,98475,,1983,1
1620713788988,98495,,1860,1
1620713788988,98515,,1743,1
1620713788988,98535,,1666,1
1620713788988,98555,,1635,1
1620713788988,98575,,1639,1
1620713788988,98595,,1735,1
1620713788988,98615,,1846,1
1620713788988,98635,,2011,1
1620713788988,98655,,2207,1
1620713788988,98675,,2341,0
1620713788988,98696,,2476,0
1620713788988,98716,,2478,0
1620713788988,98736,,2421,0
1620713788988,98756,,2342,0
1620713788988,98776,,2215,0
1620713788988,98796,,2197,0
1620713788988,98816,,2114,0
1620713788988,98836,,2035,0
1620713788988,98856,,1978,0
1620713788988,98876,,1916,0
1620713788988,98896,,1936,0
1620713789488,98916,,1892,0
1620713789488,98936,,1984,0
1620713789488,98956,,2093,0
1620713789488,98976,,2059,0
1620713789488,98996,,2010,0
1620713789488,99016,,1925,0
1620713789488,99036,,1826,0
1620713789488,99056,,1766,0
1620713789488,99076,,1727,0
1620713789488,99096,,1758,0
1620713789488,99116,,1759,0
1620713789488,99137,,1751,0
1620713789488,99157,,1751,0
1620713789488,99177,,1755,0
1620713789488,99197,,1770,0
1620713789488,99217,,1775,0
1620713789488,99237,,1759,0
1620713789488,99257,,1744,0
1620713789488,99277,,1751,0
1620713789488,99297,,1839,0
1620713789488,99317,,1979,0
1620713789488,99337,,2140,0
1620713789488,99358,,2301,0
1620713789488,99378,,2410,0
1620713789488,99398,,2458,0
1620713789993,99418,,2432,0
1620713789993,99438,,2467,0
1620713789993,99458,,2479,0
1620713789993,99478,,2363,0
1620713789993,99498,,2157,0
1620713789993,99518,,2018,0
1620713789993,99538,,1911,0
1620713789993,99558,,1835,0
1620713789993,99579,,1801,0
1620713789993,99599,,1793,0
1620713789993,99619,,1850,0
1620713789993,99639,,1881,0
1620713789993,99659,,1910,0
1620713789993,99679,,1935,1
1620713789993,99699,,1926,1
1620713789993,99719,,1968,1
1620713789993,99739,,1936,1
1620713789993,99759,,1893,1
1620713789993,99779,,1846,1
1620713789993,99800,,1786,1
1620713789993,99820,,1815,1
1620713789993,99840,,1785,1
1620713789993,99860,,1761,1
1620713789993,99880,,1733,1
1620713789993,99900,,1696,1
1620713790494,99920,,1741,1
1620713790494,99940,,1844,1
1620713790494,99960,,1943,1
1620713790494,99980,,1902,1
1620713790494,100000,,1743,1
1620713790494,100021,,1739,1
1620713790494,100041,,1776,1
1620713790494,100061,,1877,1
1620713790494,100081,,2038,1
1620713790494,100101,,2192,1
1620713790494,100121,,2325,1
1620713790494,100141,,2359,1
1620713790494,100161,,2320,1
1620713790494,100181,,2235,1
1620713790494,100201,,2143,1
1620713790494,100221,,2081,1
1620713790494,100242,,2009,1
1620713790494,100262,,1941,1
1620713790494,100282,,1885,1
1620713790494,100302,,1854,1
1620713790494,100322,,1857,1
1620713790494,100342,,1879,1
1620713790494,100362,,1893,1
1620713790494,100382,,1904,1
1620713790494,100402,,1904,1
1620713791006,100422,,1878,1
1620713791006,100442,,1977,1
1620713791006,100463,,2074,1
1620713791006,100483,,2012,1
1620713791006,100503,,1857,1
1620713791006,100523,,1744,1
1620713791006,100543,,1694,1
1620713791006,100563,,1648,1
1620713791006,100583,,1638,1
1620713791006,100603,,1651,1
1620713791006,100623,,1673,1
1620713791006,100643,,1744,1
1620713791006,100663,,1746,1
1620713791006,100684,,1743,1
1620713791006,100704,,1727,1
1620713791006,100724,,1703,1
1620713791006,100744,,1766,1
1620713791006,100764,,1820,1
1620713791006,100784,,1933,1
1620713791006,100804,,2096,1
1620713791006,100824,,2218,1
1620713791006,100844,,2384,1
1620713791006,100864,,2417,1
1620713791006,100884,,2377,1
1620713791006,100905,,2291,1
1620713801543,110988,,2256,1
1620713801543,111008,,2266,1
1620713801543,111028,,2263,1
1620713801543,111048,,2091,1
1620713801543,111069,,1887,1
1620713801543,111089,,1887,1
1620713801543,111109,,1907,1
1620713801543,111129,,1959,1
1620713801543,111149,,1856,1
1620713801543,111169,,1731,1
1620713801543,111189,,1806,1
1620713801543,111209,,1906,1
1620713801543,111229,,2015,1
1620713801543,111249,,1932,1
1620713801543,111269,,1820,1
1620713801543,111290,,1840,1
1620713801543,111310,,1902,1
1620713801543,111330,,1968,1
1620713801543,111350,,1873,1
1620713801543,111370,,1719,1
1620713801543,111390,,1745,1
1620713801543,111410,,1819,1
1620713801543,111430,,1899,1
1620713801543,111450,,1859,1
1620713802051,111471,,1738,1
1620713802051,111491,,1787,1
1620713802051,111512,,1872,1
1620713802051,111532,,1836,1
1620713802051,111552,,1744,1
1620713802051,111572,,1665,1
1620713802051,111592,,1730,1
1620713802051,111612,,1793,1
1620713802051,111632,,1904,1
1620713802051,111652,,2058,1
1620713802051,111672,,2181,1
1620713802051,111692,,2307,1
1620713802051,111712,,2321,1
1620713802051,111733,,2258,1
1620713802051,111753,,2167,1
1620713802051,111773,,2079,1
1620713802051,111793,,2009,1
1620713802051,111813,,1949,1
1620713802051,111833,,1895,1
1620713802051,111853,,1852,1
1620713802051,111873,,1840,1
1620713802051,111893,,1856,1
1620713802051,111913,,1872,1
1620713802051,111933,,1874,1
1620713802051,111954,,1899,1
1620713802552,111975,,1915,1
1620713802552,111995,,2031,1
1620713802552,112015,,2122,1
1620713802552,112035,,2064,1
1620713802552,112055,,1905,1
1620713802552,112075,,1806,1
1620713802552,112095,,1762,1
1620713802552,112115,,1749,1
1620713802552,112135,,1744,1
1620713802552,112155,,1744,1
1620713802552,112176,,1767,1
1620713802552,112196,,1793,1
1620713802552,112216,,1823,1
1620713802552,112236,,1808,1
1620713802552,112256,,1799,1
1620713802552,112276,,1798,1
1620713802552,112296,,1812,1
1620713802552,112316,,1893,1
1620713802552,112336,,1979,1
1620713802552,112356,,2097,1
1620713802552,112376,,2208,1
1620713802552,112397,,2283,1
1620713802552,112417,,2350,1
1620713802552,112437,,2302,1
1620713802552,112457,,2210,1
1620713803049,112477,,2087,1
1620713803049,112497,,2096,1
1620713803049,112517,,2098,1
1620713803049,112537,,2003,1
1620713803049,112557,,1850,1
1620713803049,112577,,1744,1
1620713803049,112597,,1679,1
1620713803049,112617,,1755,1
1620713803049,112637,,1811,1
1620713803049,112657,,1874,1
1620713803049,112677,,1929,1
1620713803049,112697,,1952,1
1620713803049,112717,,2003,1
1620713803049,112737,,1984,1
1620713803049,112757,,1937,1
1620713803049,112777,,1885,1
1620713803049,112797,,1840,1
1620713803049,112817,,1826,1
1620713803049,112838,,1801,1
1620713803049,112858,,1794,1
1620713803049,112878,,1787,1
1620713803049,112898,,1791,1
1620713803049,112918,,1793,1
1620713803049,112938,,1916,1
1620713803049,112958,,2000,1
1620713803554,112978,,2015,1
1620713803554,112998,,1988,1
1620713803554,113018,,1963,1
1620713803554,113038,,1825,1
1620713803554,113059,,1674,1
1620713803554,113079,,1627,1
1620713803554,113099,,1695,1
1620713803554,113119,,1861,1
1620713803554,113139,,2071,1
1620713803554,113159,,2218,1
1620713803554,113179,,2310,1
1620713803554,113199,,2335,1
1620713803554,113219,,2305,1
1620713803554,113239,,2255,1
1620713803554,113259,,2158,1
1620713803554,113280,,2064,1
1620713803554,113300,,1989,1
1620713803554,113320,,1934,1
1620713803554,113340,,1927,1
1620713803554,113360,,1887,1
1620713803554,113380,,1861,1
1620713803554,113400,,1856,1
1620713803554,113420,,1857,1
1620713803554,113440,,1928,1
1620713803554,113460,,1935,1
1620713804065,113480,,1921,1
1620713804065,113501,,2030,1
1620713804065,113521,,2091,1
1620713804065,113541,,2061,1
1620713804065,113561,,1898,1
1620713804065,113581,,1777,1
1620713804065,113601,,1715,1
1620713804065,113621,,1673,1
1620713804065,113641,,1744,1
1620713804065,113661,,1774,1
1620713804065,113681,,1790,1
1620713804065,113701,,1805,1
1620713804065,113722,,1781,1
1620713804065,113742,,1859,1
1620713804065,113762,,1849,1
1620713804065,113782,,1811,1
1620713804065,113802,,1794,1
1620713804065,113822,,1797,1
1620713804065,113842,,1908,1
1620713804065,113862,,2033,1
1620713804065,113882,,2148,1
1620713804065,113902,,2238,1
1620713804065,113922,,2277,1
1620713804065,113943,,2279,1
1620713804065,113963,,2229,1
1620713804558,113983,,2128,1
1620713804558,114003,,2139,1
1620713804558,114023,,2159,1
1620713804558,114043,,2085,1
1620713804558,114063,,1927,1
1620713804558,114083,,1808,1
1620713804558,114103,,1743,1
1620713804558,114123,,1728,1
1620713804558,114143,,1764,1
1620713804558,114164,,1834,1
1620713804558,114184,,1873,1
1620713804558,114204,,1918,1
1620713804558,114224,,1936,1
1620713804558,114244,,1930,1
1620713804558,114264,,1955,1
1620713804558,114284,,1909,1
1620713804558,114304,,1865,1
1620713804558,114324,,1825,1
1620713804558,114344,,1775,1
1620713804558,114364,,1827,1
1620713804558,114385,,1776,1
1620713804558,114405,,1753,1
1620713804558,114425,,1740,1
1620713804558,114445,,1730,1
1620713804558,114465,,1790,1
1620713805065,114485,,1783,1
1620713805065,114505,,1914,1
1620713805065,114525,,2071,1
1620713805065,114545,,2096,1
1620713805065,114565,,2189,1
1620713805065,114585,,2313,1
1620713805065,114606,,2370,1
1620713805065,114626,,2352,1
1620713805065,114646,,2281,1
1620713805065,114666,,2187,1
1620713805065,114686,,1978,1
1620713805065,114706,,1840,1
1620713805065,114726,,1775,1
1620713805065,114746,,1743,1
1620713805065,114766,,1821,1
1620713805065,114786,,1845,1
1620713805065,114806,,1858,1
1620713805065,114827,,1883,1
1620713805065,114847,,1892,1
1620713805065,114867,,1942,1
1620713805065,114887,,1951,1
1620713805065,114907,,1937,1
1620713805065,114927,,1921,1
1620713805065,114947,,1901,1
1620713805065,114967,,1902,1
1620713805564,114987,,1877,1
1620713805564,115007,,1947,1
1620713805564,115027,,2015,1
1620713805564,115048,,1933,1
1620713805564,115068,,1824,1
1620713805564,115088,,1729,1
1620713805564,115108,,1680,1
1620713805564,115128,,1671,1
1620713805564,115148,,1686,1
1620713805564,115168,,1733,1
1620713805564,115188,,1787,1
1620713805564,115208,,1804,1
1620713805564,115228,,1803,1
1620713805564,115248,,1801,1
1620713805564,115269,,1814,1
1620713805564,115289,,1887,1
1620713805564,115309,,1973,1
1620713805564,115329,,2102,1
1620713805564,115349,,2220,1
1620713805564,115369,,2255,1
1620713805564,115389,,2369,1
1620713805564,115409,,2415,1
1620713805564,115429,,2369,1
1620713805564,115449,,2271,1
1620713805564,115469,,2199,1
1620713806065,115489,,2042,1
1620713806065,115509,,1967,1
1620713806065,115529,,1946,1
1620713806065,115549,,1870,1
1620713806065,115569,,1718,1
1620713806065,115589,,1718,1
1620713806065,115609,,1717,1
1620713806065,115629,,1742,1
1620713806065,115649,,1790,1
1620713806065,115669,,1808,1
1620713806065,115689,,1908,1
1620713806065,115710,,1924,1
1620713806065,115730,,1914,1
1620713806065,115750,,1894,1
1620713806065,115770,,1839,1
1620713806065,115790,,1867,1
1620713806065,115810,,1840,1
1620713806065,115830,,1805,1
1620713806065,115850,,1782,1
1620713806065,115870,,1765,1
1620713806065,115890,,1807,1
1620713806065,115910,,1806,1
1620713806065,115931,,1794,1
1620713806065,115951,,1791,1
1620713806065,115971,,1781,1
1620713806570,115991,,1781,1
1620713806570,116011,,1883,1
1620713806570,116031,,1942,1
1620713806570,116051,,1949,1
1620713806570,116071,,1853,1
1620713806570,116091,,1866,1
1620713806570,116111,,1941,1
1620713806570,116131,,2043,1
1620713806570,116152,,2140,1
1620713806570,116172,,2189,1
1620713806570,116192,,2196,1
1620713806570,116212,,2165,1
1620713806570,116232,,2095,1
1620713806570,116252,,2022,1
1620713806570,116272,,1968,1
1620713806570,116292,,1931,1
1620713806570,116312,,1915,1
1620713806570,116332,,1877,1
1620713806570,116352,,1852,1
1620713806570,116373,,1842,1
1620713806570,116393,,1853,1
1620713806570,116413,,1913,1
1620713806570,116433,,1922,1
1620713806570,116453,,1917,1
1620713806570,116473,,1903,1
1620713807073,116493,,1874,1
1620713807073,116513,,1965,1
1620713807073,116533,,2043,1
1620713807073,116553,,1984,1
1620713807073,116573,,1845,1
1620713807073,116594,,1725,1
1620713807073,116614,,1721,1
1620713807073,116634,,1702,1
1620713807073,116654,,1697,1
1620713807073,116674,,1712,1
1620713807073,116694,,1707,1
1620713807073,116714,,1796,1
1620713807073,116734,,1810,1
1620713807073,116754,,1797,1
1620713807073,116774,,1793,1
1620713807073,116794,,1791,1
1620713807073,116815,,1921,1
1620713807073,116835,,2031,1
1620713807073,116855,,2134,1
1620713807073,116875,,2213,1
1620713807073,116895,,2234,0
1620713807073,116915,,2247,0
1620713807073,116935,,2183,0
1620713807073,116955,,2086,0
1620713807073,116975,,1999,0
1620713807580,116995,,1918,0
1620713807580,117015,,1986,0
1620713807580,117036,,2062,0
1620713807580,117056,,1999,0
1620713807580,117076,,1868,0
1620713807580,117096,,1776,0
1620713807580,117116,,1771,0
1620713807580,117136,,1792,0
1620713807580,117156,,1814,0
1620713807580,117176,,1831,0
1620713807580,117196,,1856,0
1620713807580,117216,,1888,0
1620713807580,117236,,1906,0
1620713807580,117257,,1888,0
1620713807580,117277,,1855,0
1620713807580,117297,,1826,0
1620713807580,117317,,1809,0
1620713807580,117337,,1820,0
1620713807580,117357,,1794,0
1620713807580,117377,,1776,0
1620713807580,117397,,1755,0
1620713807580,117417,,1747,0
1620713807580,117437,,1791,0
1620713807580,117457,,1781,0
1620713807580,117478,,1776,0
1620713808073,117498,,1786,0
1620713808073,117518,,1907,0
1620713808073,117538,,1958,0
1620713808073,117558,,1949,0
1620713808073,117578,,1826,0
1620713808073,117598,,1759,0
1620713808073,117618,,1781,0
1620713808073,117638,,1935,0
1620713808073,117658,,2064,0
1620713808073,117678,,2140,0
1620713808073,117699,,2174,0
1620713808073,117719,,2127,0
1620713808073,117739,,2144,0
1620713808073,117759,,2079,0
1620713808073,117779,,2032,0
1620713808073,117799,,1995,0
1620713808073,117819,,1939,0
1620713808073,117839,,1967,0
1620713808073,117859,,1924,0
1620713808073,117879,,1875,0
1620713808073,117899,,1858,1
1620713808073,117920,,1828,1
1620713808073,117940,,1879,1
1620713808073,117960,,1881,1
1620713808073,117980,,1873,1
1620713808577,118000,,1858,1
1620713808577,118020,,1967,1
1620713808577,118040,,2057,1
1620713808577,118060,,1997,1
1620713808577,118080,,1853,1
1620713808577,118100,,1744,1
1620713808577,118120,,1685,1
1620713808577,118140,,1680,1
1620713808577,118160,,1696,1
1620713808577,118180,,1702,1
1620713808577,118200,,1715,1
1620713808577,118220,,1739,1
1620713808577,118240,,1776,1
1620713808577,118260,,1805,1
1620713808577,118280,,1794,1
1620713808577,118300,,1790,1
1620713808577,118321,,1781,1
1620713808577,118341,,1789,1
1620713808577,118362,,1793,1
1620713808577,118382,,1770,1
1620713808577,118402,,1743,1
1620713808577,118422,,1735,1
1620713808577,118442,,1763,1
1620713808577,118462,,1845,1
1620713808577,118482,,1951,1
1620713809083,118502,,2058,1
1620713809083,118522,,2251,0
1620713809083,118542,,2373,0
1620713809083,118562,,2327,0
1620713809083,118583,,2141,0
1620713809083,118603,,1977,0
1620713809083,118623,,1872,0
1620713809083,118643,,1799,0
1620713809083,118663,,1819,0
1620713809083,118683,,1819,0
1620713809083,118703,,1809,0
1620713809083,118723,,1821,0
1620713809083,118743,,1808,0
1620713809083,118763,,1922,0
1620713809083,118783,,1936,0
1620713809083,118804,,1932,0
1620713809083,118824,,1924,0
1620713809083,118844,,1889,0
1620713809083,118864,,1930,0
1620713809083,118884,,1905,0
1620713809083,118904,,1872,0
1620713809083,118924,,1845,0
1620713809083,118944,,1807,0
1620713809083,118964,,1851,0
1620713809083,118984,,1840,0
1620713809585,119005,,1825,0
1620713809585,119026,,1934,0
1620713809585,119046,,2009,0
1620713809585,119066,,1989,0
1620713809585,119086,,1853,0
1620713809585,119106,,1746,0
1620713809585,119126,,1698,0
1620713809585,119146,,1706,0
1620713809585,119166,,1781,0
1620713809585,119186,,1894,0
1620713809585,119206,,2010,0
1620713809585,119226,,2112,0
1620713809585,119247,,2182,0
1620713809585,119267,,2222,0
1620713809585,119287,,2205,0
1620713809585,119307,,2138,0
1620713809585,119327,,2061,0
1620713809585,119347,,1984,0
1620713809585,119367,,1943,0
1620713809585,119387,,1916,0
1620713809585,119407,,1878,0
1620713809585,119427,,1847,0
1620713809585,119447,,1845,0
1620713809585,119468,,1870,0
1620713809585,119488,,1902,0
1620713810094,119508,,1904,0
1620713810094,119528,,2015,1
1620713810094,119548,,2102,1
1620713810094,119568,,2032,1
1620713810094,119588,,1923,1
1620713810094,119608,,1808,1
1620713810094,119628,,1742,1
1620713810094,119648,,1712,1
1620713810094,119668,,1695,1
1620713810094,119689,,1763,1
1620713810094,119709,,1783,1
1620713810094,119729,,1799,1
1620713810094,119749,,1809,1
1620713810094,119769,,1807,1
1620713810094,119789,,1856,1
1620713810094,119809,,1847,1
1620713810094,119829,,1829,1
1620713810094,119849,,1814,1
1620713810094,119870,,1789,1
1620713810094,119890,,1887,1
1620713810094,119910,,1968,1
1620713810094,119930,,2080,1
1620713810094,119950,,2182,1
1620713810094,119970,,2209,0
1620713810094,119990,,2276,0
1620713810594,120011,,2215,0
1620713810594,120031,,2234,0
1620713810594,120051,,2256,0
1620713810594,120071,,2096,0
1620713810594,120091,,1987,0
1620713810594,120111,,1872,0
1620713810594,120132,,1799,0
1620713810594,120152,,1781,0
1620713810594,120172,,1776,0
1620713810594,120192,,1844,0
1620713810594,120212,,1883,0
1620713810594,120232,,1918,0
1620713810594,120252,,1937,0
1620713810594,120272,,1945,0
1620713810594,120292,,1938,0
1620713810594,120312,,2031,0
1620713810594,120332,,2073,0
1620713810594,120353,,2058,0
1620713810594,120373,,1999,0
1620713810594,120393,,1966,0
1620713810594,120413,,1797,0
1620713810594,120433,,1669,0
1620713810594,120453,,1609,0
1620713810594,120473,,1614,0
1620713810594,120493,,1674,0
1620713811098,120514,,1743,0
1620713811098,120534,,1879,0
1620713811098,120554,,1985,0
1620713811098,120575,,1959,0
1620713811098,120595,,1845,0
1620713811098,120615,,1776,0
1620713811098,120635,,1744,0
1620713811098,120655,,1798,0
1620713811098,120675,,1904,0
1620713811098,120695,,2046,0
1620713811098,120715,,2187,0
1620713811098,120735,,2250,0
1620713811098,120755,,2255,0
1620713811098,120775,,2205,0
1620713811098,120796,,2121,0
1620713811098,120816,,2078,0
1620713811098,120836,,2002,0
1620713811098,120856,,1957,0
1620713811098,120876,,1915,0
1620713811098,120896,,1872,0
1620713811098,120916,,1909,0
1620713811098,120936,,1898,0
1620713811098,120956,,1883,0
1620713811098,120976,,1875,1
1620713811098,120996,,1857,1
1620713811602,121016,,1905,1
1620713811602,121036,,2015,1
1620713811602,121056,,2097,1
1620713811602,121076,,2045,0
1620713811602,121096,,1871,0
1620713811602,121116,,1812,0
1620713811602,121136,,1743,0
1620713811602,121156,,1710,0
1620713811602,121176,,1711,0
1620713811602,121196,,1714,0
1620713811602,121216,,1776,0
1620713811602,121237,,1803,0
1620713811602,121257,,1808,0
1620713811602,121277,,1810,0
1620713811602,121297,,1802,0
1620713811602,121317,,1836,0
1620713811602,121337,,1834,0
1620713811602,121357,,1823,0
1620713811602,121377,,1833,0
1620713811602,121397,,1882,0
1620713811602,121418,,2001,0
1620713811602,121438,,2121,0
1620713811602,121459,,2196,0
1620713811602,121479,,2218,0
1620713811602,121499,,2192,0
1620713812092,121519,,2118,0
1620713812092,121539,,2154,0
1620713812092,121559,,2189,0
1620713812092,121579,,2096,0
1620713812092,121599,,1925,0
1620713812092,121619,,1820,0
1620713812092,121639,,1778,0
1620713812092,121659,,1760,0
1620713812092,121680,,1777,0
1620713812092,121700,,1811,0
1620713812092,121720,,1865,0
1620713812092,121740,,1917,0
1620713812092,121760,,1921,0
1620713812092,121780,,1914,0
1620713812092,121800,,1894,0
1620713812092,121820,,1876,0
1620713812092,121840,,1890,0
1620713812092,121860,,1863,0
1620713812092,121880,,1831,0
1620713812092,121901,,1808,0
1620713812092,121921,,1790,0
1620713812092,121941,,1830,0
1620713812092,121961,,1822,0
1620713812092,121981,,1809,0
1620713812092,122001,,1805,0
1620713812601,122021,,1786,0
1620713812601,122041,,1891,0
1620713812601,122061,,1998,0
1620713812601,122081,,2028,1
1620713812601,122101,,2000,1
1620713812601,122122,,2006,1
1620713812601,122142,,2122,0
1620713812601,122162,,2161,0
1620713812601,122182,,2169,0
1620713812601,122202,,2139,0
1620713812601,122222,,2059,0
1620713812601,122242,,2007,0
1620713812601,122262,,2029,0
1620713812601,122282,,2085,0
1620713812601,122302,,2113,0
1620713812601,122322,,1971,0
1620713812601,122343,,1860,0
1620713812601,122363,,1897,0
1620713812601,122383,,1938,0
1620713812601,122403,,1968,0
1620713812601,122423,,1967,0
1620713812601,122443,,1978,0
1620713812601,122463,,1841,0
1620713812601,122483,,1740,0
1620713812601,122503,,1692,0
1620713813100,122524,,1667,0
1620713813100,122544,,1808,0
1620713813100,122565,,1937,0
1620713813100,122585,,1930,0
1620713813100,122605,,1824,0
1620713813100,122625,,1754,0
1620713813100,122645,,1732,0
1620713813100,122665,,1740,0
1620713813100,122685,,1733,0
1620713813100,122705,,1748,0
1620713813100,122725,,1767,0
1620713813100,122745,,1803,0
1620713813100,122765,,1824,0
1620713813100,122786,,1817,0
1620713813100,122806,,1831,0
1620713813100,122826,,1881,0
1620713813100,122846,,1990,0
1620713813100,122866,,2141,0
1620713813100,122886,,2240,0
1620713813100,122906,,2283,0
1620713813100,122926,,2279,0
1620713813100,122946,,2231,0
1620713813100,122966,,2187,0
1620713813100,122986,,2095,0
1620713813100,123007,,2002,0
1620713813608,123027,,1961,0
1620713813608,123047,,2030,0
1620713813608,123067,,2110,0
1620713813608,123087,,2039,0
1620713813608,123107,,1913,0
1620713813608,123127,,1824,0
1620713813608,123147,,1762,0
1620713813608,123167,,1827,0
1620713813608,123187,,1845,0
1620713813608,123207,,1863,0
1620713813608,123228,,1873,0
1620713813608,123248,,1846,0
1620713813608,123268,,1911,0
1620713813608,123288,,1904,0
1620713813608,123308,,1883,0
1620713813608,123328,,1851,0
1620713813608,123348,,1781,0
1620713813608,123368,,1825,0
1620713813608,123388,,1808,0
1620713813608,123408,,1790,0
1620713813608,123428,,1781,0
1620713813608,123449,,1776,0
1620713813608,123469,,1825,0
1620713813608,123489,,1823,0
1620713813608,123509,,1803,0
1620713814115,123529,,1806,0
1620713814115,123549,,1961,0
1620713814115,123569,,2161,0
1620713814115,123589,,2251,0
1620713814115,123609,,2242,0
1620713814115,123629,,2223,0
1620713814115,123649,,2187,0
1620713814115,123670,,2156,0
1620713814115,123690,,2098,0
1620713814115,123710,,2029,0
1620713814115,123730,,1979,0
1620713814115,123750,,1951,0
1620713814115,123770,,1937,0
1620713814115,123790,,1951,0
1620713814115,123810,,1909,0
1620713814115,123830,,1878,0
1620713814115,123850,,1853,0
1620713814115,123870,,1860,0
1620713814115,123891,,1897,0
1620713814115,123911,,1899,0
1620713814115,123931,,1904,0
1620713814115,123951,,1898,0
1620713814115,123971,,1895,0
1620713814115,123991,,1905,0
1620713814115,124011,,1878,0
1620713814620,124031,,1856,0
1620713814620,124051,,1936,0
1620713814620,124071,,1990,0
1620713814620,124091,,1941,0
1620713814620,124112,,1788,0
1620713814620,124132,,1693,0
1620713814620,124152,,1658,0
1620713814620,124172,,1641,0
1620713814620,124192,,1709,0
1620713814620,124212,,1729,0
1620713814620,124232,,1754,0
1620713814620,124252,,1778,0
1620713814620,124272,,1803,0
1620713814620,124292,,1969,0
1620713814620,124312,,2090,0
1620713814620,124333,,2193,0
1620713814620,124353,,2251,0
1620713814620,124373,,2225,0
1620713814620,124393,,2240,0
1620713814620,124413,,2160,0
1620713814620,124433,,2069,0
1620713814620,124453,,1984,0
1620713814620,124473,,1921,0
1620713814620,124493,,1923,0
1620713814620,124513,,1887,0
1620713815109,124533,,1867,0
1620713815109,124554,,1967,0
1620713815109,124574,,2031,0
1620713815109,124594,,2035,0
1620713815109,124614,,1924,0
1620713815109,124634,,1827,0
1620713815109,124654,,1783,0
1620713815109,124674,,1775,0
1620713815109,124694,,1802,0
1620713815109,124714,,1815,0
1620713815109,124734,,1814,0
1620713815109,124754,,1818,0
1620713815109,124775,,1820,0
1620713815109,124795,,1840,0
1620713815109,124815,,1862,0
1620713815109,124835,,1840,0
1620713815109,124855,,1811,0
1620713815109,124875,,1791,0
1620713815109,124895,,1787,0
1620713815109,124915,,1798,0
1620713815109,124935,,1803,0
1620713815109,124955,,1865,0
1620713815109,124975,,1963,0
1620713815109,124996,,2101,0
1620713815109,125016,,2224,0
1620713807073,116493,,1874,1
1620713807073,116513,,1965,1
1620713807073,116533,,2043,1
1620713807073,116553,,1984,1
1620713807073,116573,,1845,1
1620713807073,116594,,1725,1
1620713807073,116614,,1721,1
1620713807073,116634,,1702,1
1620713807073,116654,,1697,1
1620713807073,116674,,1712,1
1620713807073,116694,,1707,1
1620713807073,116714,,1796,1
1620713807073,116734,,1810,1
1620713807073,116754,,1797,1
1620713807073,116774,,1793,1
1620713807073,116794,,1791,1
1620713807073,116815,,1921,1
1620713807073,116835,,2031,1
1620713807073,116855,,2134,1
1620713807073,116875,,2213,1
1620713807073,116895,,2234,0
1620713807073,116915,,2247,0
1620713807073,116935,,2183,0
1620713807073,116955,,2086,0
1620713807073,116975,,1999,0
1620713807580,116995,,1918,0
1620713807580,117015,,1986,0
1620713807580,117036,,2062,0
1620713807580,117056,,1999,0
1620713807580,117076,,1868,0
1620713807580,117096,,1776,0
1620713807580,117116,,1771,0
1620713807580,117136,,1792,0
1620713807580,117156,,1814,0
1620713807580,117176,,1831,0
1620713807580,117196,,1856,0
1620713807580,117216,,1888,0
1620713807580,117236,,1906,0
1620713807580,117257,,1888,0
1620713807580,117277,,1855,0
1620713807580,117297,,1826,0
1620713807580,117317,,1809,0
1620713807580,117337,,1820,0
1620713807580,117357,,1794,0
1620713807580,117377,,1776,0
1620713807580,117397,,1755,0
1620713807580,117417,,1747,0
1620713807580,117437,,1791,0
1620713807580,117457,,1781,0
1620713807580,117478,,1776,0
1620713808073,117498,,1786,0
1620713808073,117518,,1907,0
1620713808073,117538,,1958,0
1620713808073,117558,,1949,0
1620713808073,117578,,1826,0
1620713808073,117598,,1759,0
1620713808073,117618,,1781,0
1620713808073,117638,,1935,0
1620713808073,117658,,2064,0
1620713808073,117678,,2140,0
1620713808073,117699,,2174,0
1620713808073,117719,,2127,0
1620713808073,117739,,2144,0
1620713808073,117759,,2079,0
1620713808073,117779,,2032,0
1620713808073,117799,,1995,0
1620713808073,117819,,1939,0
1620713808073,117839,,1967,0
1620713808073,117859,,1924,0
1620713808073,117879,,1875,0
1620713808073,117899,,1858,1
1620713808073,117920,,1828,1
1620713808073,117940,,1879,1
1620713808073,117960,,1881,1
1620713808073,117980,,1873,1
1620713808577,118000,,1858,1
1620713808577,118020,,1967,1
1620713808577,118040,,2057,1
1620713808577,118060,,1997,1
1620713808577,118080,,1853,1
1620713808577,118100,,1744,1
1620713808577,118120,,1685,1
1620713808577,118140,,1680,1
1620713808577,118160,,1696,1
1620713808577,118180,,1702,1
1620713808577,118200,,1715,1
1620713808577,118220,,1739,1
1620713808577,118240,,1776,1
1620713808577,118260,,1805,1
1620713808577,118280,,1794,1
1620713808577,118300,,1790,1
1620713808577,118321,,1781,1
1620713808577,118341,,1789,1
1620713808577,118362,,1793,1
1620713808577,118382,,1770,1
1620713808577,118402,,1743,1
1620713808577,118422,,1735,1
1620713808577,118442,,1763,1
1620713808577,118462,,1845,1
1620713808577,118482,,1951,1
1620713809083,118502,,2058,1
1620713809083,118522,,2251,0
1620713809083,118542,,2373,0
1620713809083,118562,,2327,0
1620713809083,118583,,2141,0
1620713809083,118603,,1977,0
1620713809083,118623,,1872,0
1620713809083,118643,,1799,0
1620713809083,118663,,1819,0
1620713809083,118683,,1819,0
1620713809083,118703,,1809,0
1620713809083,118723,,1821,0
1620713809083,118743,,1808,0
1620713809083,118763,,1922,0
1620713809083,118783,,1936,0
1620713809083,118804,,1932,0
1620713809083,118824,,1924,0
1620713809083,118844,,1889,0
1620713809083,118864,,1930,0
1620713809083,118884,,1905,0
1620713809083,118904,,1872,0
1620713809083,118924,,1845,0
1620713809083,118944,,1807,0
1620713809083,118964,,1851,0
1620713809083,118984,,1840,0
1620713809585,119005,,1825,0
1620713809585,119026,,1934,0
1620713809585,119046,,2009,0
1620713809585,119066,,1989,0
1620713809585,119086,,1853,0
1620713809585,119106,,1746,0
1620713809585,119126,,1698,0
1620713809585,119146,,1706,0
1620713809585,119166,,1781,0
1620713809585,119186,,1894,0
1620713809585,119206,,2010,0
1620713809585,119226,,2112,0
1620713809585,119247,,2182,0
1620713809585,119267,,2222,0
1620713809585,119287,,2205,0
1620713809585,119307,,2138,0
1620713809585,119327,,2061,0
1620713809585,119347,,1984,0
1620713809585,119367,,1943,0
1620713809585,119387,,1916,0
1620713809585,119407,,1878,0
1620713809585,119427,,1847,0
1620713809585,119447,,1845,0
1620713809585,119468,,1870,0
1620713809585,119488,,1902,0
1620713810094,119508,,1904,0
1620713810094,119528,,2015,1
1620713810094,119548,,2102,1
1620713810094,119568,,2032,1
1620713810094,119588,,1923,1
1620713810094,119608,,1808,1
1620713810094,119628,,1742,1
1620713810094,119648,,1712,1
1620713810094,119668,,1695,1
1620713810094,119689,,1763,1
1620713810094,119709,,1783,1
1620713810094,119729,,1799,1
1620713810094,119749,,1809,1
1620713810094,119769,,1807,1
1620713810094,119789,,1856,1
1620713810094,119809,,1847,1
1620713810094,119829,,1829,1
1620713810094,119849,,1814,1
1620713810094,119870,,1789,1
1620713810094,119890,,1887,1
1620713810094,119910,,1968,1
1620713810094,119930,,2080,1
1620713810094,119950,,2182,1
1620713810094,119970,,2209,0
1620713810094,119990,,2276,0
1620713810594,120011,,2215,0
1620713810594,120031,,2234,0
1620713810594,120051,,2256,0
1620713810594,120071,,2096,0
1620713810594,120091,,1987,0
1620713810594,120111,,1872,0
1620713810594,120132,,1799,0
1620713810594,120152,,1781,0
1620713810594,120172,,1776,0
1620713810594,120192,,1844,0
1620713810594,120212,,1883,0
1620713810594,120232,,1918,0
1620713810594,120252,,1937,0
1620713810594,120272,,1945,0
1620713810594,120292,,1938,0
1620713810594,120312,,2031,0
1620713810594,120332,,2073,0
1620713810594,120353,,2058,0
1620713810594,120373,,1999,0
1620713810594,120393,,1966,0
1620713810594,120413,,1797,0
1620713810594,120433,,1669,0
1620713810594,120453,,1609,0
1620713810594,120473,,1614,0
1620713810594,120493,,1674,0
1620713811098,120514,,1743,0
1620713811098,120534,,1879,0
1620713811098,120554,,1985,0
1620713811098,120575,,1959,0
1620713811098,120595,,1845,0
1620713811098,120615,,1776,0
1620713811098,120635,,1744,0
1620713811098,120655,,1798,0
1620713811098,120675,,1904,0
1620713811098,120695,,2046,0
1620713811098,120715,,2187,0
1620713811098,120735,,2250,0
1620713811098,120755,,2255,0
1620713811098,120775,,2205,0
1620713811098,120796,,2121,0
1620713811098,120816,,2078,0
1620713811098,120836,,2002,0
1620713811098,120856,,1957,0
1620713811098,120876,,1915,0
1620713811098,120896,,1872,0
1620713811098,120916,,1909,0
1620713811098,120936,,1898,0
1620713811098,120956,,1883,0
1620713811098,120976,,1875,1
1620713811098,120996,,1857,1
1620713811602,121016,,1905,1
1620713811602,121036,,2015,1
1620713811602,121056,,2097,1
1620713811602,121076,,2045,0
1620713811602,121096,,1871,0
1620713811602,121116,,1812,0
1620713811602,121136,,1743,0
1620713811602,121156,,1710,0
1620713811602,121176,,1711,0
1620713811602,121196,,1714,0
1620713811602,121216,,1776,0
1620713811602,121237,,1803,0
1620713811602,121257,,1808,0
1620713811602,121277,,1810,0
1620713811602,121297,,1802,0
1620713811602,121317,,1836,0
1620713811602,121337,,1834,0
1620713811602,121357,,1823,0
1620713811602,121377,,1833,0
1620713811602,121397,,1882,0
1620713811602,121418,,2001,0
1620713811602,121438,,2121,0
1620713811602,121459,,2196,0
1620713811602,121479,,2218,0
1620713811602,121499,,2192,0
1620713812092,121519,,2118,0
1620713812092,121539,,2154,0
1620713812092,121559,,2189,0
1620713812092,121579,,2096,0
1620713812092,121599,,1925,0
1620713812092,121619,,1820,0
1620713812092,121639,,1778,0
1620713812092,121659,,1760,0
1620713812092,121680,,1777,0
1620713812092,121700,,1811,0
1620713812092,121720,,1865,0
1620713812092,121740,,1917,0
1620713812092,121760,,1921,0
1620713812092,121780,,1914,0
1620713812092,121800,,1894,0
1620713812092,121820,,1876,0
1620713812092,121840,,1890,0
1620713812092,121860,,1863,0
1620713812092,121880,,1831,0
1620713812092,121901,,1808,0
1620713812092,121921,,1790,0
1620713812092,121941,,1830,0
1620713812092,121961,,1822,0
1620713812092,121981,,1809,0
1620713812092,122001,,1805,0
1620713812601,122021,,1786,0
1620713812601,122041,,1891,0
1620713812601,122061,,1998,0
1620713812601,122081,,2028,1
1620713812601,122101,,2000,1
1620713812601,122122,,2006,1
1620713812601,122142,,2122,0
1620713812601,122162,,2161,0
1620713812601,122182,,2169,0
1620713812601,122202,,2139,0
1620713812601,122222,,2059,0
1620713812601,122242,,2007,0
1620713812601,122262,,2029,0
1620713812601,122282,,2085,0
1620713812601,122302,,2113,0
1620713812601,122322,,1971,0
1620713812601,122343,,1860,0
1620713812601,122363,,1897,0
1620713812601,122383,,1938,0
1620713812601,122403,,1968,0
1620713812601,122423,,1967,0
1620713812601,122443,,1978,0
1620713812601,122463,,1841,0
1620713812601,122483,,1740,0
1620713812601,122503,,1692,0
1620713813100,122524,,1667,0
1620713813100,122544,,1808,0
1620713813100,122565,,1937,0
1620713813100,122585,,1930,0
1620713813100,122605,,1824,0
1620713813100,122625,,1754,0
1620713813100,122645,,1732,0
1620713813100,122665,,1740,0
1620713813100,122685,,1733,0
1620713813100,122705,,1748,0
1620713813100,122725,,1767,0
1620713813100,122745,,1803,0
1620713813100,122765,,1824,0
1620713813100,122786,,1817,0
1620713813100,122806,,1831,0
1620713813100,122826,,1881,0
1620713813100,122846,,1990,0
1620713813100,122866,,2141,0
1620713813100,122886,,2240,0
1620713813100,122906,,2283,0
1620713813100,122926,,2279,0
1620713813100,122946,,2231,0
1620713813100,122966,,2187,0
1620713813100,122986,,2095,0
1620713813100,123007,,2002,0
1620713813608,123027,,1961,0
1620713813608,123047,,2030,0
1620713813608,123067,,2110,0
1620713813608,123087,,2039,0
1620713813608,123107,,1913,0
1620713813608,123127,,1824,0
1620713813608,123147,,1762,0
1620713813608,123167,,1827,0
1620713813608,123187,,1845,0
1620713813608,123207,,1863,0
1620713813608,123228,,1873,0
1620713813608,123248,,1846,0
1620713813608,123268,,1911,0
1620713813608,123288,,1904,0
1620713813608,123308,,1883,0
1620713813608,123328,,1851,0
1620713813608,123348,,1781,0
1620713813608,123368,,1825,0
1620713813608,123388,,1808,0
1620713813608,123408,,1790,0
1620713813608,123428,,1781,0
1620713813608,123449,,1776,0
1620713813608,123469,,1825,0
1620713813608,123489,,1823,0
1620713813608,123509,,1803,0
1620713814115,123529,,1806,0
1620713814115,123549,,1961,0
1620713814115,123569,,2161,0
1620713814115,123589,,2251,0
1620713814115,123609,,2242,0
1620713814115,123629,,2223,0
1620713814115,123649,,2187,0
1620713814115,123670,,2156,0
1620713814115,123690,,2098,0
1620713814115,123710,,2029,0
1620713814115,123730,,1979,0
1620713814115,123750,,1951,0
1620713814115,123770,,1937,0
1620713814115,123790,,1951,0
1620713814115,123810,,1909,0
1620713814115,123830,,1878,0
1620713814115,123850,,1853,0
1620713814115,123870,,1860,0
1620713814115,123891,,1897,0
1620713814115,123911,,1899,0
1620713814115,123931,,1904,0
1620713814115,123951,,1898,0
1620713814115,123971,,1895,0
1620713814115,123991,,1905,0
1620713814115,124011,,1878,0
1620713814620,124031,,1856,0
1620713814620,124051,,1936,0
1620713814620,124071,,1990,0
1620713814620,124091,,1941,0
1620713814620,124112,,1788,0
1620713814620,124132,,1693,0
1620713814620,124152,,1658,0
1620713814620,124172,,1641,0
1620713814620,124192,,1709,0
1620713814620,124212,,1729,0
1620713814620,124232,,1754,0
1620713814620,124252,,1778,0
1620713814620,124272,,1803,0
1620713814620,124292,,1969,0
1620713814620,124312,,2090,0
1620713814620,124333,,2193,0
1620713814620,124353,,2251,0
1620713814620,124373,,2225,0
1620713814620,124393,,2240,0
1620713814620,124413,,2160,0
1620713814620,124433,,2069,0
1620713814620,124453,,1984,0
1620713814620,124473,,1921,0
1620713814620,124493,,1923,0
1620713814620,124513,,1887,0
1620713815109,124533,,1867,0
1620713815109,124554,,1967,0
1620713815109,124574,,2031,0
1620713815109,124594,,2035,0
1620713815109,124614,,1924,0
1620713815109,124634,,1827,0
1620713815109,124654,,1783,0
1620713815109,124674,,1775,0
1620713815109,124694,,1802,0
1620713815109,124714,,1815,0
1620713815109,124734,,1814,0
1620713815109,124754,,1818,0
1620713815109,124775,,1820,0
1620713815109,124795,,1840,0
1620713815109,124815,,1862,0
1620713815109,124835,,1840,0
1620713815109,124855,,1811,0
1620713815109,124875,,1791,0
1620713815109,124895,,1787,0
1620713815109,124915,,1798,0
1620713815109,124935,,1803,0
1620713815109,124955,,1865,0
1620713815109,124975,,1963,0
1620713815109,124996,,2101,0
1620713815109,125016,,2224,0
1620713815613,125036,,2254,0
1620713815613,125056,,2341,0
1620713815613,125076,,2384,0
1620713815613,125096,,2261,0
1620713815613,125116,,2096,0
1620713815613,125136,,1923,0
1620713815613,125156,,1822,0
1620713815613,125176,,1767,0
1620713815613,125196,,1743,0
1620713815613,125217,,1808,0
1620713815613,125237,,1839,0
1620713815613,125257,,1864,0
1620713815613,125277,,1895,0
1620713815613,125297,,1901,0
1620713815613,125317,,1968,0
1620713815613,125337,,1963,0
1620713815613,125357,,1930,0
1620713815613,125377,,1894,0
1620713815613,125397,,1818,0
1620713815613,125417,,1827,0
1620713815613,125438,,1789,0
1620713815613,125458,,1758,0
1620713815613,125478,,1754,0
1620713815613,125498,,1735,0
1620713815613,125518,,1805,0
1620713816114,125538,,1789,0
1620713816114,125558,,1877,0
1620713816114,125578,,1970,0
1620713816114,125598,,1903,0
1620713816114,125618,,1818,0
1620713816114,125638,,1739,0
1620713816114,125659,,1735,0
1620713816114,125679,,1817,0
1620713816114,125699,,1946,0
1620713816114,125719,,2138,0
1620713816114,125739,,2270,0
1620713816114,125759,,2307,0
1620713816114,125779,,2288,0
1620713816114,125799,,2219,0
1620713816114,125819,,2151,0
1620713816114,125839,,2094,0
1620713816114,125859,,2015,0
1620713816114,125880,,1950,0
1620713816114,125900,,1900,0
1620713816114,125920,,1888,0
1620713816114,125940,,1872,0
1620713816114,125960,,1859,0
1620713816114,125980,,1862,0
1620713816114,126000,,1872,0
1620713816114,126020,,1885,1
1620713816619,126040,,1902,1
1620713816619,126060,,2002,1
1620713816619,126080,,2093,1
1620713816619,126101,,2019,1
1620713816619,126121,,1877,1
1620713816619,126141,,1798,1
1620713816619,126161,,1742,1
1620713816619,126181,,1734,1
1620713816619,126201,,1743,1
1620713816619,126221,,1741,1
1620713816619,126241,,1796,1
1620713816619,126261,,1795,1
1620713816619,126281,,1785,1
1620713816619,126301,,1782,1
1620713816619,126322,,1745,1
1620713816619,126342,,1803,1
1620713816619,126362,,1827,1
1620713816619,126382,,1893,1
1620713816619,126402,,2006,1
1620713816619,126422,,2095,1
1620713816619,126442,,2243,1
1620713816619,126462,,2269,1
1620713816619,126482,,2233,1
1620713816619,126502,,2160,1
1620713816619,126522,,2039,1
1620713817123,126543,,2018,1
1620713817123,126563,,2077,1
1620713817123,126583,,2112,1
1620713817123,126603,,2045,1
1620713817123,126623,,1872,1
1620713817123,126643,,1797,1
1620713817123,126663,,1744,1
1620713817123,126683,,1741,1
1620713817123,126703,,1765,1
1620713817123,126723,,1807,1
1620713817123,126743,,1871,1
1620713817123,126764,,1906,1
1620713817123,126784,,1903,1
1620713817123,126804,,1883,1
1620713817123,126824,,1869,1
1620713817123,126844,,1872,1
1620713817123,126864,,1851,1
1620713817123,126884,,1818,1
1620713817123,126904,,1790,1
1620713817123,126924,,1775,1
1620713817123,126944,,1783,1
1620713817123,126964,,1799,1
1620713817123,126985,,1789,1
1620713817123,127005,,1781,1
1620713817123,127025,,1789,1
1620713817626,127046,,1840,1
1620713817626,127066,,2047,1
1620713817626,127086,,2269,1
1620713817626,127106,,2337,1
1620713817626,127126,,2283,1
1620713817626,127146,,2207,1
1620713817626,127166,,2154,1
1620713817626,127186,,2064,1
1620713817626,127207,,1979,1
1620713817626,127227,,1936,1
1620713817626,127247,,1915,1
1620713817626,127267,,1934,1
1620713817626,127287,,1906,1
1620713817626,127307,,1886,1
1620713817626,127327,,1861,1
1620713817626,127347,,1852,1
1620713817626,127367,,1906,1
1620713817626,127387,,1909,1
1620713817626,127407,,1908,1
1620713817626,127428,,1899,1
1620713817626,127448,,1859,1
1620713817626,127468,,1904,1
1620713817626,127488,,1872,1
1620713817626,127508,,1838,1
1620713817626,127528,,1808,1
1620713818126,127548,,1776,1
1620713818126,127568,,1873,1
1620713818126,127588,,1963,1
1620713818126,127608,,1915,1
1620713818126,127628,,1793,1
1620713818126,127649,,1679,1
1620713818126,127669,,1702,1
1620713818126,127689,,1685,1
1620713818126,127709,,1685,1
1620713818126,127729,,1714,1
1620713818126,127749,,1745,1
1620713818126,127769,,1841,1
1620713818126,127789,,2073,1
1620713818126,127809,,2274,1
1620713818126,127829,,2414,1
1620713818126,127849,,2458,1
1620713818126,127870,,2453,1
1620713818126,127890,,2261,1
1620713818126,127910,,2078,1
1620713818126,127930,,1942,1
1620713818126,127950,,1875,1
1620713818126,127970,,1874,1
1620713818126,127990,,1886,1
1620713818126,128010,,1881,1
1620713818126,128030,,1875,1
1620713814620,124152,,1658,0
1620713814620,124172,,1641,0
1620713814620,124192,,1709,0
1620713814620,124212,,1729,0
1620713814620,124232,,1754,0
1620713814620,124252,,1778,0
1620713814620,124272,,1803,0
1620713814620,124292,,1969,0
1620713814620,124312,,2090,0
1620713814620,124333,,2193,0
1620713814620,124353,,2251,0
1620713814620,124373,,2225,0
1620713814620,124393,,2240,0
1620713814620,124413,,2160,0
1620713814620,124433,,2069,0
1620713814620,124453,,1984,0
1620713814620,124473,,1921,0
1620713814620,124493,,1923,0
1620713814620,124513,,1887,0
1620713815109,124533,,1867,0
1620713815109,124554,,1967,0
1620713815109,124574,,2031,0
1620713815109,124594,,2035,0
1620713815109,124614,,1924,0
1620713815109,124634,,1827,0
1620713815109,124654,,1783,0
1620713815109,124674,,1775,0
1620713815109,124694,,1802,0
1620713815109,124714,,1815,0
1620713815109,124734,,1814,0
1620713815109,124754,,1818,0
1620713815109,124775,,1820,0
1620713815109,124795,,1840,0
1620713815109,124815,,1862,0
1620713815109,124835,,1840,0
1620713815109,124855,,1811,0
1620713815109,124875,,1791,0
1620713815109,124895,,1787,0
1620713815109,124915,,1798,0
1620713815109,124935,,1803,0
1620713815109,124955,,1865,0
1620713815109,124975,,1963,0
1620713815109,124996,,2101,0
1620713815109,125016,,2224,0
1620713815613,125036,,2254,0
1620713815613,125056,,2341,0
1620713815613,125076,,2384,0
1620713815613,125096,,2261,0
1620713815613,125116,,2096,0
1620713815613,125136,,1923,0
1620713815613,125156,,1822,0
1620713815613,125176,,1767,0
1620713815613,125196,,1743,0
1620713815613,125217,,1808,0
1620713815613,125237,,1839,0
1620713815613,125257,,1864,0
1620713815613,125277,,1895,0
1620713815613,125297,,1901,0
1620713815613,125317,,1968,0
1620713815613,125337,,1963,0
1620713815613,125357,,1930,0
1620713815613,125377,,1894,0
1620713815613,125397,,1818,0
1620713815613,125417,,1827,0
1620713815613,125438,,1789,0
1620713815613,125458,,1758,0
1620713815613,125478,,1754,0
1620713815613,125498,,1735,0
1620713815613,125518,,1805,0
1620713816114,125538,,1789,0
1620713816114,125558,,1877,0
1620713816114,125578,,1970,0
1620713816114,125598,,1903,0
1620713816114,125618,,1818,0
1620713816114,125638,,1739,0
1620713816114,125659,,1735,0
1620713816114,125679,,1817,0
1620713816114,125699,,1946,0
1620713816114,125719,,2138,0
1620713816114,125739,,2270,0
1620713816114,125759,,2307,0
1620713816114,125779,,2288,0
1620713816114,125799,,2219,0
1620713816114,125819,,2151,0
1620713816114,125839,,2094,0
1620713816114,125859,,2015,0
1620713816114,125880,,1950,0
1620713816114,125900,,1900,0
1620713816114,125920,,1888,0
1620713816114,125940,,1872,0
1620713816114,125960,,1859,0
1620713816114,125980,,1862,0
1620713816114,126000,,1872,0
1620713816114,126020,,1885,1
1620713816619,126040,,1902,1
1620713816619,126060,,2002,1
1620713816619,126080,,2093,1
1620713816619,126101,,2019,1
1620713816619,126121,,1877,1
1620713816619,126141,,1798,1
1620713816619,126161,,1742,1
1620713816619,126181,,1734,1
1620713816619,126201,,1743,1
1620713816619,126221,,1741,1
1620713816619,126241,,1796,1
1620713816619,126261,,1795,1
1620713816619,126281,,1785,1
1620713816619,126301,,1782,1
1620713816619,126322,,1745,1
1620713816619,126342,,1803,1
1620713816619,126362,,1827,1
1620713816619,126382,,1893,1
1620713816619,126402,,2006,1
1620713816619,126422,,2095,1
1620713816619,126442,,2243,1
1620713816619,126462,,2269,1
1620713816619,126482,,2233,1
1620713816619,126502,,2160,1
1620713816619,126522,,2039,1
1620713817123,126543,,2018,1
1620713817123,126563,,2077,1
1620713817123,126583,,2112,1
1620713817123,126603,,2045,1
1620713817123,126623,,1872,1
1620713817123,126643,,1797,1
1620713817123,126663,,1744,1
1620713817123,126683,,1741,1
1620713817123,126703,,1765,1
1620713817123,126723,,1807,1
1620713817123,126743,,1871,1
1620713817123,126764,,1906,1
1620713817123,126784,,1903,1
1620713817123,126804,,1883,1
1620713817123,126824,,1869,1
1620713817123,126844,,1872,1
1620713817123,126864,,1851,1
1620713817123,126884,,1818,1
1620713817123,126904,,1790,1
1620713817123,126924,,1775,1
1620713817123,126944,,1783,1
1620713817123,126964,,1799,1
1620713817123,126985,,1789,1
1620713817123,127005,,1781,1
1620713817123,127025,,1789,1
1620713817626,127046,,1840,1
1620713817626,127066,,2047,1
1620713817626,127086,,2269,1
1620713817626,127106,,2337,1
1620713817626,127126,,2283,1
1620713817626,127146,,2207,1
1620713817626,127166,,2154,1
1620713817626,127186,,2064,1
1620713817626,127207,,1979,1
1620713817626,127227,,1936,1
1620713817626,127247,,1915,1
1620713817626,127267,,1934,1
1620713817626,127287,,1906,1
1620713817626,127307,,1886,1
1620713817626,127327,,1861,1
1620713817626,127347,,1852,1
1620713817626,127367,,1906,1
1620713817626,127387,,1909,1
1620713817626,127407,,1908,1
1620713817626,127428,,1899,1
1620713817626,127448,,1859,1
1620713817626,127468,,1904,1
1620713817626,127488,,1872,1
1620713817626,127508,,1838,1
1620713817626,127528,,1808,1
1620713818126,127548,,1776,1
1620713818126,127568,,1873,1
1620713818126,127588,,1963,1
1620713818126,127608,,1915,1
1620713818126,127628,,1793,1
1620713818126,127649,,1679,1
1620713818126,127669,,1702,1
1620713818126,127689,,1685,1
1620713818126,127709,,1685,1
1620713818126,127729,,1714,1
1620713818126,127749,,1745,1
1620713818126,127769,,1841,1
1620713818126,127789,,2073,1
1620713818126,127809,,2274,1
1620713818126,127829,,2414,1
1620713818126,127849,,2458,1
1620713818126,127870,,2453,1
1620713818126,127890,,2261,1
1620713818126,127910,,2078,1
1620713818126,127930,,1942,1
1620713818126,127950,,1875,1
1620713818126,127970,,1874,1
1620713818126,127990,,1886,1
1620713818126,128010,,1881,1
1620713818126,128030,,1875,1
1620713818640,128051,,1840,1
1620713818640,128071,,1911,1
1620713818640,128092,,2007,1
1620713818640,128112,,1981,1
1620713818640,128132,,1880,1
1620713818640,128152,,1810,1
1620713818640,128172,,1775,1
1620713818640,128192,,1793,1
1620713818640,128212,,1776,1
1620713818640,128232,,1767,1
1620713818640,128252,,1763,1
1620713818640,128272,,1776,1
1620713818640,128292,,1801,1
1620713818640,128313,,1777,1
1620713818640,128333,,1766,1
1620713818640,128353,,1757,1
1620713818640,128373,,1755,1
1620713818640,128393,,1779,1
1620713818640,128413,,1774,1
1620713818640,128433,,1757,1
1620713818640,128453,,1744,1
1620713818640,128473,,1718,1
1620713818640,128493,,1777,1
1620713818640,128513,,1771,1
1620713818640,128534,,1749,1
1620713819129,128554,,1737,1
1620713819129,128574,,1882,1
1620713819129,128594,,2021,1
1620713819129,128614,,2141,1
1620713819129,128634,,2139,1
1620713819129,128654,,2134,1
1620713819129,128674,,2076,1
1620713819129,128694,,2112,1
1620713819129,128714,,2173,1
1620713819129,128734,,2214,1
1620713819129,128755,,2102,1
1620713819129,128775,,1901,1
1620713819129,128795,,1840,1
1620713819129,128815,,1875,1
1620713819129,128835,,1913,1
1620713819129,128855,,1928,1
1620713819129,128875,,1800,1
1620713819129,128895,,1750,1
1620713819129,128915,,1840,1
1620713819129,128935,,1946,1
1620713819129,128955,,1948,1
1620713819129,128976,,1856,1
1620713819129,128996,,1776,1
1620713819129,129016,,1840,1
1620713819129,129036,,1888,1
1620713819641,129056,,1892,1
1620713819641,129076,,1890,1
1620713819641,129096,,1866,1
1620713819641,129116,,1847,1
1620713819641,129136,,1714,1
1620713819641,129156,,1629,1
1620713819641,129176,,1607,1
1620713819641,129197,,1639,1
1620713819641,129217,,1682,1
1620713819641,129237,,1711,1
1620713819641,129257,,1739,1
1620713819641,129277,,1770,1
1620713819641,129297,,1801,1
1620713819641,129317,,1847,1
1620713819641,129337,,1882,1
1620713819641,129357,,1954,1
1620713819641,129378,,2063,1
1620713819641,129398,,2158,1
1620713819641,129419,,2240,1
1620713819641,129439,,2224,1
1620713819641,129459,,2172,1
1620713819641,129479,,2102,1
1620713819641,129499,,2028,1
1620713819641,129519,,2000,1
1620713819641,129539,,1953,1
1620713820141,129559,,1910,1
1620713820141,129579,,1987,1
1620713820141,129599,,2026,1
1620713820141,129619,,2011,1
1620713820141,129640,,1877,1
1620713820141,129660,,1786,1
1620713820141,129680,,1745,1
1620713820141,129700,,1735,1
1620713820141,129720,,1815,1
1620713820141,129740,,1826,1
1620713820141,129760,,1836,1
1620713820141,129780,,1838,1
1620713820141,129800,,1810,1
1620713820141,129821,,1877,0
1620713820141,129841,,1856,0
1620713820141,129862,,1821,0
1620713820141,129882,,1788,0
1620713820141,129902,,1740,0
1620713820141,129922,,1789,0
1620713820141,129942,,1783,0
1620713820141,129962,,1773,0
1620713820141,129982,,1761,0
1620713820141,130002,,1759,0
1620713820141,130022,,1808,0
1620713820141,130042,,1813,0
1620713820641,130062,,1802,0
1620713820641,130083,,1901,0
1620713820641,130103,,1968,0
1620713820641,130123,,1952,0
1620713820641,130143,,1817,0
1620713820641,130163,,1728,0
1620713820641,130183,,1744,0
1620713820641,130203,,1840,0
1620713820641,130223,,2004,0
1620713820641,130243,,2139,0
1620713820641,130263,,2198,0
1620713820641,130283,,2207,0
1620713820641,130304,,2159,0
1620713820641,130324,,2110,0
1620713820641,130344,,2045,0
1620713820641,130364,,1979,0
1620713820641,130384,,1932,0
1620713820641,130404,,1894,0
1620713820641,130424,,1875,0
1620713820641,130444,,1872,0
1620713820641,130464,,1854,0
1620713820641,130484,,1834,0
1620713820641,130504,,1838,0
1620713820641,130525,,1857,0
1620713820641,130545,,1904,0
1620713821139,130566,,1898,0
1620713821139,130586,,1995,0
1620713821139,130606,,2071,0
1620713821139,130626,,1989,0
1620713821139,130646,,1872,0
1620713821139,130666,,1744,0
1620713821139,130686,,1677,0
1620713821139,130706,,1663,0
1620713821139,130726,,1669,0
1620713821139,130747,,1745,0
1620713821139,130767,,1751,0
1620713821139,130787,,1761,0
1620713821139,130807,,1774,0
1620713821139,130827,,1753,0
1620713821139,130847,,1818,0
1620713821139,130867,,1808,0
1620713821139,130887,,1787,0
1620713821139,130907,,1776,0
1620713821139,130927,,1739,0
1620713821139,130947,,1799,0
1620713821139,130968,,1782,0
1620713821139,130988,,1774,0
1620713821139,131008,,1808,0
1620713821139,131028,,1866,0
1620713821139,131048,,2034,0
1620713821641,131068,,2130,0
1620713821641,131088,,2283,0
1620713821641,131108,,2367,0
1620713821641,131128,,2260,0
1620713821641,131148,,2093,0
1620713821641,131168,,1923,0
1620713821641,131189,,1807,0
1620713821641,131209,,1749,0
1620713821641,131229,,1733,0
1620713821641,131249,,1761,1
1620713821641,131269,,1790,1
1620713821641,131289,,1807,1
1620713821641,131309,,1831,1
1620713821641,131329,,1851,1
1620713821641,131349,,1898,1
1620713821641,131369,,1923,1
1620713821641,131389,,1912,1
1620713821641,131410,,1893,1
1620713821641,131430,,1871,1
1620713821641,131450,,1869,1
1620713821641,131470,,1860,1
1620713821641,131490,,1839,1
1620713821641,131510,,1808,1
1620713821641,131530,,1792,1
1620713821641,131550,,1756,1
1620713822153,131571,,1870,1
1620713822153,131591,,1946,1
1620713822153,131611,,1963,1
1620713822153,131632,,1943,1
1620713822153,131652,,1945,1
1620713822153,131672,,1823,1
1620713822153,131692,,1698,1
1620713822153,131712,,1639,1
1620713822153,131732,,1646,1
1620713822153,131752,,1708,1
1620713822153,131772,,1852,1
1620713822153,131792,,1985,1
1620713822153,131812,,2103,1
1620713822153,131832,,2179,1
1620713822153,131853,,2191,0
1620713822153,131873,,2211,0
1620713822153,131893,,2134,0
1620713822153,131913,,2045,0
1620713822153,131933,,1967,0
1620713822153,131953,,1885,0
1620713822153,131973,,1901,0
1620713822153,131993,,1866,0
1620713822153,132013,,1846,0
1620713822153,132033,,1840,0
1620713822153,132053,,1809,0
1620713822649,132073,,1872,0
1620713822649,132093,,1990,0
1620713822649,132113,,2087,0
1620713822649,132133,,2065,0
1620713822649,132153,,1925,0
1620713822649,132173,,1862,0
1620713822649,132193,,1791,0
1620713822649,132213,,1744,0
1620713822649,132233,,1734,0
1620713822649,132253,,1744,0
1620713822649,132273,,1794,0
1620713822649,132294,,1820,0
1620713822649,132314,,1817,0
1620713822649,132334,,1810,0
1620713822649,132354,,1805,0
1620713822649,132374,,1839,0
1620713822649,132394,,1845,0
1620713822649,132414,,1840,0
1620713822649,132434,,1817,0
1620713822649,132454,,1798,0
1620713822649,132474,,1808,0
1620713822649,132494,,1811,0
1620713822649,132515,,1805,0
1620713822649,132535,,1831,0
1620713822649,132555,,1905,0
1620713823152,132575,,2017,0
1620713823152,132595,,2237,0
1620713823152,132615,,2409,0
1620713823152,132635,,2381,0
1620713823152,132655,,2237,0
1620713823152,132675,,2112,0
1620713823152,132695,,2029,0
1620713823152,132715,,1947,0
1620713823152,132736,,1897,0
1620713823152,132756,,1861,0
1620713823152,132776,,1851,0
1620713823152,132796,,1877,0
1620713823152,132816,,1872,0
1620713823152,132836,,1863,0
1620713823152,132856,,1861,1
1620713823152,132876,,1837,1
1620713823152,132896,,1940,1
1620713823152,132916,,1936,1
1620713823152,132936,,1923,1
1620713823152,132957,,1904,1
1620713823152,132977,,1866,1
1620713823152,132997,,1900,1
1620713823152,133017,,1872,1
1620713823152,133037,,1839,1
1620713823152,133057,,1815,1
1620713823657,133077,,1795,1
1620713823657,133097,,1898,1
1620713823657,133117,,1985,1
1620713823657,133137,,1936,1
1620713823657,133157,,1825,1
1620713823657,133178,,1717,1
1620713823657,133198,,1738,1
1620713823657,133218,,1723,1
1620713823657,133238,,1735,1
1620713823657,133258,,1797,1
1620713823657,133278,,1897,1
1620713823657,133298,,2069,1
1620713823657,133318,,2187,1
1620713823657,133338,,2239,1
1620713823657,133358,,2230,1
1620713823657,133378,,2193,1
1620713823657,133398,,2155,1
1620713823657,133418,,2078,1
1620713823657,133438,,2002,1
1620713823657,133458,,1949,1
1620713823657,133478,,1907,1
1620713823657,133498,,1898,1
1620713823657,133518,,1883,1
1620713823657,133538,,1857,1
1620713823657,133558,,1845,1
1620713824162,133579,,1840,1
1620713824162,133599,,1963,1
1620713824162,133620,,2085,1
1620713824162,133640,,2038,1
1620713824162,133660,,1925,1
1620713824162,133680,,1827,1
1620713824162,133700,,1773,1
1620713824162,133720,,1762,1
1620713824162,133740,,1750,1
1620713824162,133760,,1763,1
1620713824162,133780,,1776,1
1620713824162,133800,,1787,1
1620713824162,133820,,1822,1
1620713824162,133841,,1813,1
1620713824162,133861,,1809,1
1620713824162,133881,,1807,1
1620713824162,133901,,1775,1
1620713824162,133921,,1904,1
1620713824162,133941,,1968,1
1620713824162,133961,,2053,1
1620713824162,133981,,2128,1
1620713824162,134001,,2159,1
1620713824162,134021,,2209,1
1620713824162,134041,,2162,1
1620713824162,134062,,2094,1
1620713824664,134082,,2000,1
1620713824664,134102,,2047,1
1620713824664,134122,,2108,1
1620713824664,134142,,2027,1
1620713824664,134162,,1877,1
1620713824664,134182,,1791,1
1620713824664,134202,,1715,1
1620713824664,134222,,1774,1
1620713824664,134242,,1790,1
1620713824664,134262,,1814,1
1620713824664,134283,,1850,1
1620713824664,134303,,1873,1
1620713824664,134323,,1923,1
1620713824664,134343,,1919,1
1620713824664,134363,,1891,1
1620713824664,134383,,1863,1
1620713824664,134403,,1842,1
1620713824664,134423,,1841,1
1620713824664,134443,,1833,1
1620713824664,134463,,1808,1
1620713824664,134483,,1791,1
1620713824664,134504,,1779,1
1620713824664,134524,,1808,1
1620713824664,134544,,1821,1
1620713824664,134564,,1819,1
1620713825164,134584,,1827,1
1620713825164,134604,,1990,1
1620713825164,134624,,2175,1
1620713825164,134644,,2236,0
1620713825164,134664,,2202,0
1620713825164,134684,,2151,0
1620713825164,134704,,2096,0
1620713825164,134725,,2045,0
1620713825164,134745,,2010,0
1620713825164,134765,,1951,0
1620713825164,134785,,1902,0
1620713825164,134805,,1870,0
1620713825164,134825,,1841,0
1620713825164,134845,,1862,0
1620713825164,134865,,1851,0
1620713825164,134885,,1851,0
1620713825164,134905,,1860,0
1620713825164,134925,,1872,0
1620713825164,134946,,1943,0
1620713825164,134966,,1943,0
1620713825164,134986,,1933,0
1620713825164,135006,,1911,0
1620713825164,135026,,1862,0
1620713825164,135046,,1888,0
1620713825164,135066,,1855,0
1620713825663,135086,,1822,0
1620713825663,135106,,1907,0
1620713825663,135126,,1952,0
1620713825663,135146,,1968,0
1620713825663,135167,,1838,0
1620713825663,135187,,1743,0
1620713825663,135207,,1696,0
1620713825663,135227,,1655,0
1620713825663,135247,,1731,0
1620713825663,135267,,1746,0
1620713825663,135287,,1776,0
1620713825663,135307,,1841,0
1620713825663,135327,,1932,0
1620713825663,135347,,2096,0
1620713825663,135367,,2222,0
1620713825663,135388,,2283,0
1620713825663,135408,,2286,0
1620713825663,135428,,2217,0
1620713825663,135448,,2192,0
1620713825663,135468,,2126,0
1620713825663,135488,,2039,0
1620713825663,135508,,1968,0
1620713825663,135528,,1923,0
1620713825663,135548,,1909,0
1620713825663,135568,,1888,0
1620713826167,135588,,1856,0
1620713826167,135609,,1959,0
1620713826167,135629,,2074,0
1620713826167,135649,,2041,0
1620713826167,135669,,1962,0
1620713826167,135689,,1883,0
1620713826167,135709,,1835,0
1620713826167,135729,,1811,0
1620713826167,135749,,1811,0
1620713826167,135769,,1837,0
1620713826167,135789,,1830,0
1620713826167,135809,,1816,0
1620713826167,135830,,1807,0
1620713826167,135850,,1792,0
1620713826167,135870,,1845,0
1620713826167,135890,,1824,0
1620713826167,135910,,1797,0
1620713826167,135930,,1785,0
1620713826167,135950,,1777,0
1620713826167,135970,,1808,0
1620713826167,135990,,1803,0
1620713826167,136010,,1819,0
1620713826167,136030,,1876,0
1620713826167,136051,,1975,0
1620713826167,136071,,2179,0
1620713821641,131510,,1808,1
1620713821641,131530,,1792,1
1620713821641,131550,,1756,1
1620713822153,131571,,1870,1
1620713822153,131591,,1946,1
1620713822153,131611,,1963,1
1620713822153,131632,,1943,1
1620713822153,131652,,1945,1
1620713822153,131672,,1823,1
1620713822153,131692,,1698,1
1620713822153,131712,,1639,1
1620713822153,131732,,1646,1
1620713822153,131752,,1708,1
1620713822153,131772,,1852,1
1620713822153,131792,,1985,1
1620713822153,131812,,2103,1
1620713822153,131832,,2179,1
1620713822153,131853,,2191,0
1620713822153,131873,,2211,0
1620713822153,131893,,2134,0
1620713822153,131913,,2045,0
1620713822153,131933,,1967,0
1620713822153,131953,,1885,0
1620713822153,131973,,1901,0
1620713822153,131993,,1866,0
1620713822153,132013,,1846,0
1620713822153,132033,,1840,0
1620713822153,132053,,1809,0
1620713822649,132073,,1872,0
1620713822649,132093,,1990,0
1620713822649,132113,,2087,0
1620713822649,132133,,2065,0
1620713822649,132153,,1925,0
1620713822649,132173,,1862,0
1620713822649,132193,,1791,0
1620713822649,132213,,1744,0
1620713822649,132233,,1734,0
1620713822649,132253,,1744,0
1620713822649,132273,,1794,0
1620713822649,132294,,1820,0
1620713822649,132314,,1817,0
1620713822649,132334,,1810,0
1620713822649,132354,,1805,0
1620713822649,132374,,1839,0
1620713822649,132394,,1845,0
1620713822649,132414,,1840,0
1620713822649,132434,,1817,0
1620713822649,132454,,1798,0
1620713822649,132474,,1808,0
1620713822649,132494,,1811,0
1620713822649,132515,,1805,0
1620713822649,132535,,1831,0
1620713822649,132555,,1905,0
1620713823152,132575,,2017,0
1620713823152,132595,,2237,0
1620713823152,132615,,2409,0
1620713823152,132635,,2381,0
1620713823152,132655,,2237,0
1620713823152,132675,,2112,0
1620713823152,132695,,2029,0
1620713823152,132715,,1947,0
1620713823152,132736,,1897,0
1620713823152,132756,,1861,0
1620713823152,132776,,1851,0
1620713823152,132796,,1877,0
1620713823152,132816,,1872,0
1620713823152,132836,,1863,0
1620713823152,132856,,1861,1
1620713823152,132876,,1837,1
1620713823152,132896,,1940,1
1620713823152,132916,,1936,1
1620713823152,132936,,1923,1
1620713823152,132957,,1904,1
1620713823152,132977,,1866,1
1620713823152,132997,,1900,1
1620713823152,133017,,1872,1
1620713823152,133037,,1839,1
1620713823152,133057,,1815,1
1620713823657,133077,,1795,1
1620713823657,133097,,1898,1
1620713823657,133117,,1985,1
1620713823657,133137,,1936,1
1620713823657,133157,,1825,1
1620713823657,133178,,1717,1
1620713823657,133198,,1738,1
1620713823657,133218,,1723,1
1620713823657,133238,,1735,1
1620713823657,133258,,1797,1
1620713823657,133278,,1897,1
1620713823657,133298,,2069,1
1620713823657,133318,,2187,1
1620713823657,133338,,2239,1
1620713823657,133358,,2230,1
1620713823657,133378,,2193,1
1620713823657,133398,,2155,1
1620713823657,133418,,2078,1
1620713823657,133438,,2002,1
1620713823657,133458,,1949,1
1620713823657,133478,,1907,1
1620713823657,133498,,1898,1
1620713823657,133518,,1883,1
1620713823657,133538,,1857,1
1620713823657,133558,,1845,1
1620713824162,133579,,1840,1
1620713824162,133599,,1963,1
1620713824162,133620,,2085,1
1620713824162,133640,,2038,1
1620713824162,133660,,1925,1
1620713824162,133680,,1827,1
1620713824162,133700,,1773,1
1620713824162,133720,,1762,1
1620713824162,133740,,1750,1
1620713824162,133760,,1763,1
1620713824162,133780,,1776,1
1620713824162,133800,,1787,1
1620713824162,133820,,1822,1
1620713824162,133841,,1813,1
1620713824162,133861,,1809,1
1620713824162,133881,,1807,1
1620713824162,133901,,1775,1
1620713824162,133921,,1904,1
1620713824162,133941,,1968,1
1620713824162,133961,,2053,1
1620713824162,133981,,2128,1
1620713824162,134001,,2159,1
1620713824162,134021,,2209,1
1620713824162,134041,,2162,1
1620713824162,134062,,2094,1
1620713824664,134082,,2000,1
1620713824664,134102,,2047,1
1620713824664,134122,,2108,1
1620713824664,134142,,2027,1
1620713824664,134162,,1877,1
1620713824664,134182,,1791,1
1620713824664,134202,,1715,1
1620713824664,134222,,1774,1
1620713824664,134242,,1790,1
1620713824664,134262,,1814,1
1620713824664,134283,,1850,1
1620713824664,134303,,1873,1
1620713824664,134323,,1923,1
1620713824664,134343,,1919,1
1620713824664,134363,,1891,1
1620713824664,134383,,1863,1
1620713824664,134403,,1842,1
1620713824664,134423,,1841,1
1620713824664,134443,,1833,1
1620713824664,134463,,1808,1
1620713824664,134483,,1791,1
1620713824664,134504,,1779,1
1620713824664,134524,,1808,1
1620713824664,134544,,1821,1
1620713824664,134564,,1819,1
1620713825164,134584,,1827,1
1620713825164,134604,,1990,1
1620713825164,134624,,2175,1
1620713825164,134644,,2236,0
1620713825164,134664,,2202,0
1620713825164,134684,,2151,0
1620713825164,134704,,2096,0
1620713825164,134725,,2045,0
1620713825164,134745,,2010,0
1620713825164,134765,,1951,0
1620713825164,134785,,1902,0
1620713825164,134805,,1870,0
1620713825164,134825,,1841,0
1620713825164,134845,,1862,0
1620713825164,134865,,1851,0
1620713825164,134885,,1851,0
1620713825164,134905,,1860,0
1620713825164,134925,,1872,0
1620713825164,134946,,1943,0
1620713825164,134966,,1943,0
1620713825164,134986,,1933,0
1620713825164,135006,,1911,0
1620713825164,135026,,1862,0
1620713825164,135046,,1888,0
1620713825164,135066,,1855,0
1620713825663,135086,,1822,0
1620713825663,135106,,1907,0
1620713825663,135126,,1952,0
1620713825663,135146,,1968,0
1620713825663,135167,,1838,0
1620713825663,135187,,1743,0
1620713825663,135207,,1696,0
1620713825663,135227,,1655,0
1620713825663,135247,,1731,0
1620713825663,135267,,1746,0
1620713825663,135287,,1776,0
1620713825663,135307,,1841,0
1620713825663,135327,,1932,0
1620713825663,135347,,2096,0
1620713825663,135367,,2222,0
1620713825663,135388,,2283,0
1620713825663,135408,,2286,0
1620713825663,135428,,2217,0
1620713825663,135448,,2192,0
1620713825663,135468,,2126,0
1620713825663,135488,,2039,0
1620713825663,135508,,1968,0
1620713825663,135528,,1923,0
1620713825663,135548,,1909,0
1620713825663,135568,,1888,0
1620713826167,135588,,1856,0
1620713826167,135609,,1959,0
1620713826167,135629,,2074,0
1620713826167,135649,,2041,0
1620713826167,135669,,1962,0
1620713826167,135689,,1883,0
1620713826167,135709,,1835,0
1620713826167,135729,,1811,0
1620713826167,135749,,1811,0
1620713826167,135769,,1837,0
1620713826167,135789,,1830,0
1620713826167,135809,,1816,0
1620713826167,135830,,1807,0
1620713826167,135850,,1792,0
1620713826167,135870,,1845,0
1620713826167,135890,,1824,0
1620713826167,135910,,1797,0
1620713826167,135930,,1785,0
1620713826167,135950,,1777,0
1620713826167,135970,,1808,0
1620713826167,135990,,1803,0
1620713826167,136010,,1819,0
1620713826167,136030,,1876,0
1620713826167,136051,,1975,0
1620713826167,136071,,2179,0
1620713826675,136091,,2262,0
1620713826675,136111,,2395,0
1620713826675,136131,,2449,0
1620713826675,136151,,2307,0
1620713826675,136171,,2160,0
1620713826675,136191,,1989,0
1620713826675,136211,,1872,0
1620713826675,136231,,1814,0
1620713826675,136251,,1777,0
1620713826675,136272,,1847,0
1620713826675,136292,,1846,0
1620713826675,136312,,1849,0
1620713826675,136332,,1862,0
1620713826675,136352,,1859,0
1620713826675,136372,,1936,0
1620713826675,136392,,1943,0
1620713826675,136412,,1926,0
1620713826675,136432,,1904,0
1620713826675,136452,,1872,0
1620713826675,136472,,1891,0
1620713826675,136493,,1868,0
1620713826675,136513,,1835,0
1620713826675,136533,,1808,0
1620713826675,136553,,1793,0
1620713826675,136573,,1808,0
1620713827175,136594,,1803,0
1620713827175,136614,,1897,0
1620713827175,136634,,1982,0
1620713827175,136654,,1921,0
1620713827175,136675,,1815,0
1620713827175,136695,,1776,0
1620713827175,136716,,1808,0
1620713827175,136736,,1918,0
1620713827175,136756,,2062,0
1620713827175,136776,,2183,0
1620713827175,136796,,2243,0
1620713827175,136816,,2224,0
1620713827175,136836,,2161,0
1620713827175,136856,,2099,0
1620713827175,136876,,2042,0
1620713827175,136896,,2003,0
1620713827175,136916,,1939,0
1620713827175,136937,,1887,0
1620713827175,136957,,1834,0
1620713827175,136977,,1804,0
1620713827175,136997,,1827,0
1620713827175,137017,,1840,0
1620713827175,137037,,1872,0
1620713827175,137057,,1901,0
1620713827175,137077,,1933,0
1620713827675,137097,,1982,0
1620713827675,137117,,2087,0
1620713827675,137137,,2133,0
1620713827675,137158,,2041,0
1620713827675,137178,,1872,0
1620713827675,137198,,1794,0
1620713827675,137218,,1712,0
1620713827675,137238,,1674,0
1620713827675,137258,,1679,0
1620713827675,137278,,1675,0
1620713827675,137298,,1776,0
1620713827675,137318,,1806,0
1620713827675,137338,,1806,0
1620713827675,137358,,1818,0
1620713827675,137379,,1843,0
1620713827675,137399,,2020,0
1620713827675,137419,,2255,0
1620713827675,137439,,2418,0
1620713827675,137459,,2491,0
1620713827675,137479,,2471,0
1620713827675,137499,,2407,0
1620713827675,137519,,2178,0
1620713827675,137539,,1977,0
1620713827675,137559,,1866,0
1620713827675,137579,,1810,0
1620713828177,137599,,1823,0
1620713828177,137619,,1937,0
1620713828177,137639,,2030,0
1620713828177,137659,,2018,0
1620713828177,137679,,1913,0
1620713828177,137699,,1872,0
1620713828177,137719,,1856,0
1620713828177,137739,,1840,0
1620713828177,137759,,1847,0
1620713828177,137779,,1861,0
1620713828177,137799,,1881,0
1620713828177,137820,,1886,0
1620713828177,137840,,1857,0
1620713828177,137860,,1834,0
1620713828177,137880,,1824,0
1620713828177,137900,,1827,0
1620713828177,137920,,1830,0
1620713828177,137940,,1799,0
1620713828177,137960,,1778,0
1620713828177,137980,,1763,0
1620713828177,138000,,1770,0
1620713828177,138020,,1799,0
1620713828177,138041,,1798,0
1620713828177,138061,,1792,0
1620713828177,138081,,1785,0
1620713828676,138101,,1786,0
1620713828676,138121,,1915,0
1620713828676,138141,,2028,0
1620713828676,138161,,2155,0
1620713828676,138181,,2173,0
1620713828676,138201,,2185,0
1620713828676,138221,,2255,0
1620713828676,138241,,2247,0
1620713828676,138262,,2189,0
1620713828676,138282,,2137,0
1620713828676,138302,,2177,0
1620713828676,138322,,2221,0
1620713828676,138342,,2123,0
1620713828676,138362,,1980,0
1620713828676,138382,,1878,0
1620713828676,138402,,1782,0
1620713828676,138422,,1826,1
1620713828676,138442,,1817,1
1620713828676,138462,,1825,1
1620713828676,138483,,1850,1
1620713828676,138503,,1853,1
1620713828676,138523,,1936,1
1620713828676,138543,,1937,1
1620713828676,138563,,1930,1
1620713828676,138583,,1904,1
1620713829218,138603,,1861,1
1620713829218,138623,,1946,1
1620713829218,138643,,2011,1
1620713829218,138663,,1968,1
1620713829218,138683,,1831,1
1620713829218,138704,,1730,1
1620713829218,138724,,1705,1
1620713829218,138744,,1702,1
1620713829218,138764,,1712,1
1620713829218,138784,,1734,1
1620713829218,138804,,1750,1
1620713829218,138824,,1785,1
1620713829218,138844,,1807,1
1620713829218,138864,,1803,1
1620713829218,138884,,1799,1
1620713829218,138904,,1783,1
1620713829218,138925,,1789,1
1620713829218,138945,,1840,1
1620713829218,138965,,1872,1
1620713829218,138985,,1963,1
1620713829218,139005,,2093,1
1620713829218,139025,,2208,1
1620713829218,139045,,2308,0
1620713829218,139065,,2309,0
1620713829218,139085,,2254,0
1620713829687,139106,,2155,0
1620713829687,139126,,2170,0
1620713829687,139147,,2192,0
1620713829687,139167,,2083,0
1620713829687,139187,,1919,0
1620713829687,139207,,1809,0
1620713829687,139227,,1738,0
1620713829687,139247,,1822,0
1620713829687,139267,,1829,0
1620713829687,139287,,1840,0
1620713829687,139307,,1872,0
1620713829687,139327,,1863,0
1620713829687,139347,,1939,0
1620713829687,139368,,1929,0
1620713829687,139388,,1914,0
1620713829687,139408,,1890,0
1620713829687,139428,,1833,0
1620713829687,139448,,1871,0
1620713829687,139468,,1839,0
1620713829687,139488,,1808,0
1620713829687,139508,,1790,0
1620713829687,139528,,1758,0
1620713829687,139549,,1818,0
1620713829687,139569,,1820,0
1620713829687,139590,,1808,0
1620713830182,139610,,1808,0
1620713830182,139630,,1905,0
1620713830182,139650,,1975,0
1620713830182,139670,,1936,0
1620713830182,139690,,1811,0
1620713830182,139710,,1751,0
1620713830182,139730,,1781,0
1620713830182,139750,,1949,0
1620713830182,139770,,2123,0
1620713830182,139790,,2235,0
1620713830182,139811,,2288,0
1620713830182,139831,,2267,0
1620713830182,139851,,2254,0
1620713830182,139871,,2181,0
1620713830182,139891,,2093,0
1620713830182,139911,,2013,0
1620713830182,139931,,1966,0
1620713830182,139951,,1940,0
1620713830182,139971,,1905,0
1620713830182,139991,,1869,0
1620713830182,140011,,1851,0
1620713830182,140032,,1851,0
1620713830182,140052,,1888,1
1620713830182,140072,,1920,1
1620713830182,140092,,1925,1
1620713830692,140113,,1917,1
1620713830692,140133,,2001,1
1620713830692,140153,,2071,1
1620713830692,140173,,1989,1
1620713830692,140193,,1849,1
1620713830692,140213,,1740,1
1620713830692,140233,,1680,1
1620713830692,140254,,1677,1
1620713830692,140274,,1719,1
1620713830692,140294,,1739,1
1620713830692,140314,,1750,1
1620713830692,140334,,1764,1
1620713830692,140354,,1776,1
1620713830692,140374,,1809,1
1620713830692,140394,,1798,1
1620713830692,140414,,1781,1
1620713830692,140434,,1769,1
1620713830692,140454,,1755,1
1620713830692,140475,,1790,1
1620713830692,140495,,1771,1
1620713830692,140515,,1744,1
1620713830692,140535,,1744,1
1620713830692,140555,,1771,1
1620713830692,140575,,1942,1
1620713830692,140595,,2089,1
1620713831186,140615,,2198,0
1620713831186,140635,,2352,0
1620713831186,140655,,2413,0
1620713831186,140675,,2375,0
1620713831186,140696,,2162,0
1620713831186,140716,,1983,0
1620713831186,140736,,1872,0
1620713831186,140756,,1799,0
1620713831186,140776,,1853,0
1620713831186,140796,,1844,0
1620713831186,140816,,1839,0
1620713831186,140836,,1836,0
1620713831186,140856,,1833,0
1620713831186,140876,,1869,0
1620713831186,140896,,1990,0
1620713831186,140917,,2064,0
1620713831186,140937,,2113,0
1620713831186,140957,,1984,0
1620713831186,140977,,1840,0
1620713831186,140997,,1861,0
1620713831186,141017,,1885,0
1620713831186,141037,,1922,0
1620713831186,141057,,1794,0
1620713831186,141077,,1678,0
1620713831186,141097,,1763,0
1620713831694,141117,,1813,0
1620713831694,141138,,1854,0
1620713831694,141158,,1895,0
1620713831694,141178,,1779,0
1620713831694,141198,,1776,0
1620713831694,141218,,1797,0
1620713831694,141238,,1813,0
1620713831694,141258,,1815,0
1620713831694,141278,,1856,0
1620713831694,141298,,1766,0
1620713831694,141318,,1651,0
1620713831694,141338,,1599,0
1620713831694,141359,,1616,0
1620713831694,141379,,1697,0
1620713831694,141399,,1851,0
1620713831694,141419,,2002,0
1620713831694,141439,,2147,0
1620713831694,141459,,2235,0
1620713831694,141479,,2236,0
1620713831694,141499,,2259,0
1620713831694,141519,,2171,0
1620713831694,141539,,2064,0
1620713831694,141559,,1975,0
1620713831694,141580,,1891,0
1620713831694,141600,,1890,0
1620713832192,141620,,1840,1
1620713832192,141640,,1918,1
1620713832192,141660,,2000,1
1620713832192,141680,,1925,1
1620713832192,141700,,1882,1
1620713832192,141720,,1808,1
1620713832192,141740,,1776,1
1620713832192,141760,,1780,1
1620713832192,141780,,1766,1
1620713832192,141800,,1839,1
1620713832192,141820,,1835,1
1620713832192,141840,,1825,1
1620713832192,141860,,1821,1
1620713832192,141880,,1799,1
1620713832192,141900,,1830,1
1620713832192,141920,,1819,1
1620713832192,141940,,1801,1
1620713832192,141960,,1790,1
1620713832192,141980,,1786,1
1620713832192,142000,,1802,1
1620713832192,142021,,1807,1
1620713832192,142041,,1795,1
1620713832192,142061,,1789,1
1620713832192,142081,,1781,1
1620713832192,142101,,1799,1
1620713832701,142121,,1810,1
1620713832701,142141,,1958,1
1620713832701,142161,,2139,1
1620713832701,142181,,2205,1
1620713832701,142201,,2202,1
1620713832701,142221,,2192,0
1620713832701,142242,,2139,0
1620713832701,142262,,2078,0
1620713832701,142282,,2003,0
1620713832701,142302,,1963,0
1620713832701,142322,,1958,0
1620713832701,142342,,1930,0
1620713832701,142362,,1902,0
1620713832701,142382,,1879,0
1620713832701,142402,,1865,0
1620713832701,142422,,1883,0
1620713832701,142442,,1863,0
1620713832701,142463,,1847,0
1620713832701,142483,,1843,0
1620713832701,142503,,1826,0
1620713832701,142523,,1907,0
1620713832701,142543,,1904,0
1620713832701,142563,,1883,0
1620713832701,142583,,1851,0
1620713832701,142603,,1802,0
1620713833198,142623,,1827,0
1620713833198,142643,,1908,0
1620713833198,142663,,1974,0
1620713833198,142684,,1924,0
1620713833198,142704,,1765,0
1620713833198,142724,,1731,0
1620713833198,142744,,1671,0
1620713833198,142764,,1638,0
1620713833198,142784,,1667,0
1620713833198,142804,,1712,0
1620713833198,142824,,1862,0
1620713833198,142844,,1966,0
1620713833198,142864,,2054,0
1620713833198,142884,,2091,0
1620713833198,142905,,2039,0
1620713833198,142925,,2013,0
1620713833198,142945,,1935,0
1620713833198,142965,,1841,0
1620713833198,142985,,1774,0
1620713833198,143005,,1759,0
1620713833198,143025,,1847,0
1620713833198,143045,,1968,0
1620713833198,143065,,2109,0
1620713833198,143085,,2217,0
1620713833198,143105,,2270,0
1620713833702,143125,,2257,0
1620713833702,143145,,2333,0
1620713833702,143165,,2353,0
1620713833702,143185,,2247,0
1620713833702,143205,,2064,0
1620713833702,143225,,1942,0
1620713833702,143245,,1895,0
1620713833702,143265,,1858,0
1620713833702,143285,,1851,0
1620713833702,143305,,1870,0
1620713833702,143325,,1909,0
1620713833702,143346,,1975,0
1620713833702,143366,,1998,0
1620713833702,143386,,2000,0
1620713833702,143406,,1990,0
1620713833702,143426,,1968,0
1620713833702,143446,,1981,0
1620713833702,143466,,1942,0
1620713833702,143486,,1905,0
1620713833702,143506,,1872,0
1620713833702,143526,,1831,0
1620713833702,143546,,1861,0
1620713833702,143567,,1854,0
1620713833702,143587,,1846,0
1620713833702,143607,,1845,0
1620713834203,143627,,1836,0
1620713834203,143647,,1939,0
1620713834203,143667,,2032,0
1620713834203,143687,,1979,0
1620713834203,143707,,1845,0
1620713834203,143727,,1718,0
1620713834203,143747,,1745,0
1620713834203,143767,,1771,0
1620713834203,143788,,1857,0
1620713834203,143808,,1960,0
1620713834203,143828,,2023,0
1620713834203,143848,,2126,0
1620713834203,143868,,2112,0
1620713834203,143888,,2039,0
1620713834203,143908,,1951,0
1620713834203,143928,,1857,0
1620713834203,143948,,1855,0
1620713834203,143968,,1843,0
1620713834203,143988,,1824,0
1620713834203,144009,,1809,0
1620713834203,144029,,1813,0
1620713834203,144049,,1840,0
1620713834203,144069,,1859,0
1620713834203,144089,,1875,0
1620713834203,144109,,1895,0
1620713827175,136856,,2099,0
1620713827175,136876,,2042,0
1620713827175,136896,,2003,0
1620713827175,136916,,1939,0
1620713827175,136937,,1887,0
1620713827175,136957,,1834,0
1620713827175,136977,,1804,0
1620713827175,136997,,1827,0
1620713827175,137017,,1840,0
1620713827175,137037,,1872,0
1620713827175,137057,,1901,0
1620713827175,137077,,1933,0
1620713827675,137097,,1982,0
1620713827675,137117,,2087,0
1620713827675,137137,,2133,0
1620713827675,137158,,2041,0
1620713827675,137178,,1872,0
1620713827675,137198,,1794,0
1620713827675,137218,,1712,0
1620713827675,137238,,1674,0
1620713827675,137258,,1679,0
1620713827675,137278,,1675,0
1620713827675,137298,,1776,0
1620713827675,137318,,1806,0
1620713827675,137338,,1806,0
1620713827675,137358,,1818,0
1620713827675,137379,,1843,0
1620713827675,137399,,2020,0
1620713827675,137419,,2255,0
1620713827675,137439,,2418,0
1620713827675,137459,,2491,0
1620713827675,137479,,2471,0
1620713827675,137499,,2407,0
1620713827675,137519,,2178,0
1620713827675,137539,,1977,0
1620713827675,137559,,1866,0
1620713827675,137579,,1810,0
1620713828177,137599,,1823,0
1620713828177,137619,,1937,0
1620713828177,137639,,2030,0
1620713828177,137659,,2018,0
1620713828177,137679,,1913,0
1620713828177,137699,,1872,0
1620713828177,137719,,1856,0
1620713828177,137739,,1840,0
1620713828177,137759,,1847,0
1620713828177,137779,,1861,0
1620713828177,137799,,1881,0
1620713828177,137820,,1886,0
1620713828177,137840,,1857,0
1620713828177,137860,,1834,0
1620713828177,137880,,1824,0
1620713828177,137900,,1827,0
1620713828177,137920,,1830,0
1620713828177,137940,,1799,0
1620713828177,137960,,1778,0
1620713828177,137980,,1763,0
1620713828177,138000,,1770,0
1620713828177,138020,,1799,0
1620713828177,138041,,1798,0
1620713828177,138061,,1792,0
1620713828177,138081,,1785,0
1620713828676,138101,,1786,0
1620713828676,138121,,1915,0
1620713828676,138141,,2028,0
1620713828676,138161,,2155,0
1620713828676,138181,,2173,0
1620713828676,138201,,2185,0
1620713828676,138221,,2255,0
1620713828676,138241,,2247,0
1620713828676,138262,,2189,0
1620713828676,138282,,2137,0
1620713828676,138302,,2177,0
1620713828676,138322,,2221,0
1620713828676,138342,,2123,0
1620713828676,138362,,1980,0
1620713828676,138382,,1878,0
1620713828676,138402,,1782,0
1620713828676,138422,,1826,1
1620713828676,138442,,1817,1
1620713828676,138462,,1825,1
1620713828676,138483,,1850,1
1620713828676,138503,,1853,1
1620713828676,138523,,1936,1
1620713828676,138543,,1937,1
1620713828676,138563,,1930,1
1620713828676,138583,,1904,1
1620713829218,138603,,1861,1
1620713829218,138623,,1946,1
1620713829218,138643,,2011,1
1620713829218,138663,,1968,1
1620713829218,138683,,1831,1
1620713829218,138704,,1730,1
1620713829218,138724,,1705,1
1620713829218,138744,,1702,1
1620713829218,138764,,1712,1
1620713829218,138784,,1734,1
1620713829218,138804,,1750,1
1620713829218,138824,,1785,1
1620713829218,138844,,1807,1
1620713829218,138864,,1803,1
1620713829218,138884,,1799,1
1620713829218,138904,,1783,1
1620713829218,138925,,1789,1
1620713829218,138945,,1840,1
1620713829218,138965,,1872,1
1620713829218,138985,,1963,1
1620713829218,139005,,2093,1
1620713829218,139025,,2208,1
1620713829218,139045,,2308,0
1620713829218,139065,,2309,0
1620713829218,139085,,2254,0
1620713829687,139106,,2155,0
1620713829687,139126,,2170,0
1620713829687,139147,,2192,0
1620713829687,139167,,2083,0
1620713829687,139187,,1919,0
1620713829687,139207,,1809,0
1620713829687,139227,,1738,0
1620713829687,139247,,1822,0
1620713829687,139267,,1829,0
1620713829687,139287,,1840,0
1620713829687,139307,,1872,0
1620713829687,139327,,1863,0
1620713829687,139347,,1939,0
1620713829687,139368,,1929,0
1620713829687,139388,,1914,0
1620713829687,139408,,1890,0
1620713829687,139428,,1833,0
1620713829687,139448,,1871,0
1620713829687,139468,,1839,0
1620713829687,139488,,1808,0
1620713829687,139508,,1790,0
1620713829687,139528,,1758,0
1620713829687,139549,,1818,0
1620713829687,139569,,1820,0
1620713829687,139590,,1808,0
1620713830182,139610,,1808,0
1620713830182,139630,,1905,0
1620713830182,139650,,1975,0
1620713830182,139670,,1936,0
1620713830182,139690,,1811,0
1620713830182,139710,,1751,0
1620713830182,139730,,1781,0
1620713830182,139750,,1949,0
1620713830182,139770,,2123,0
1620713830182,139790,,2235,0
1620713830182,139811,,2288,0
1620713830182,139831,,2267,0
1620713830182,139851,,2254,0
1620713830182,139871,,2181,0
1620713830182,139891,,2093,0
1620713830182,139911,,2013,0
1620713830182,139931,,1966,0
1620713830182,139951,,1940,0
1620713830182,139971,,1905,0
1620713830182,139991,,1869,0
1620713830182,140011,,1851,0
1620713830182,140032,,1851,0
1620713830182,140052,,1888,1
1620713830182,140072,,1920,1
1620713830182,140092,,1925,1
1620713830692,140113,,1917,1
1620713830692,140133,,2001,1
1620713830692,140153,,2071,1
1620713830692,140173,,1989,1
1620713830692,140193,,1849,1
1620713830692,140213,,1740,1
1620713830692,140233,,1680,1
1620713830692,140254,,1677,1
1620713830692,140274,,1719,1
1620713830692,140294,,1739,1
1620713830692,140314,,1750,1
1620713830692,140334,,1764,1
1620713830692,140354,,1776,1
1620713830692,140374,,1809,1
1620713830692,140394,,1798,1
1620713830692,140414,,1781,1
1620713830692,140434,,1769,1
1620713830692,140454,,1755,1
1620713830692,140475,,1790,1
1620713830692,140495,,1771,1
1620713830692,140515,,1744,1
1620713830692,140535,,1744,1
1620713830692,140555,,1771,1
1620713830692,140575,,1942,1
1620713830692,140595,,2089,1
1620713831186,140615,,2198,0
1620713831186,140635,,2352,0
1620713831186,140655,,2413,0
1620713831186,140675,,2375,0
1620713831186,140696,,2162,0
1620713831186,140716,,1983,0
1620713831186,140736,,1872,0
1620713831186,140756,,1799,0
1620713831186,140776,,1853,0
1620713831186,140796,,1844,0
1620713831186,140816,,1839,0
1620713831186,140836,,1836,0
1620713831186,140856,,1833,0
1620713831186,140876,,1869,0
1620713831186,140896,,1990,0
1620713831186,140917,,2064,0
1620713831186,140937,,2113,0
1620713831186,140957,,1984,0
1620713831186,140977,,1840,0
1620713831186,140997,,1861,0
1620713831186,141017,,1885,0
1620713831186,141037,,1922,0
1620713831186,141057,,1794,0
1620713831186,141077,,1678,0
1620713831186,141097,,1763,0
1620713831694,141117,,1813,0
1620713831694,141138,,1854,0
1620713831694,141158,,1895,0
1620713831694,141178,,1779,0
1620713831694,141198,,1776,0
1620713831694,141218,,1797,0
1620713831694,141238,,1813,0
1620713831694,141258,,1815,0
1620713831694,141278,,1856,0
1620713831694,141298,,1766,0
1620713831694,141318,,1651,0
1620713831694,141338,,1599,0
1620713831694,141359,,1616,0
1620713831694,141379,,1697,0
1620713831694,141399,,1851,0
1620713831694,141419,,2002,0
1620713831694,141439,,2147,0
1620713831694,141459,,2235,0
1620713831694,141479,,2236,0
1620713831694,141499,,2259,0
1620713831694,141519,,2171,0
1620713831694,141539,,2064,0
1620713831694,141559,,1975,0
1620713831694,141580,,1891,0
1620713831694,141600,,1890,0
1620713832192,141620,,1840,1
1620713832192,141640,,1918,1
1620713832192,141660,,2000,1
1620713832192,141680,,1925,1
1620713832192,141700,,1882,1
1620713832192,141720,,1808,1
1620713832192,141740,,1776,1
1620713832192,141760,,1780,1
1620713832192,141780,,1766,1
1620713832192,141800,,1839,1
1620713832192,141820,,1835,1
1620713832192,141840,,1825,1
1620713832192,141860,,1821,1
1620713832192,141880,,1799,1
1620713832192,141900,,1830,1
1620713832192,141920,,1819,1
1620713832192,141940,,1801,1
1620713832192,141960,,1790,1
1620713832192,141980,,1786,1
1620713832192,142000,,1802,1
1620713832192,142021,,1807,1
1620713832192,142041,,1795,1
1620713832192,142061,,1789,1
1620713832192,142081,,1781,1
1620713832192,142101,,1799,1
1620713832701,142121,,1810,1
1620713832701,142141,,1958,1
1620713832701,142161,,2139,1
1620713832701,142181,,2205,1
1620713832701,142201,,2202,1
1620713832701,142221,,2192,0
1620713832701,142242,,2139,0
1620713832701,142262,,2078,0
1620713832701,142282,,2003,0
1620713832701,142302,,1963,0
1620713832701,142322,,1958,0
1620713832701,142342,,1930,0
1620713832701,142362,,1902,0
1620713832701,142382,,1879,0
1620713832701,142402,,1865,0
1620713832701,142422,,1883,0
1620713832701,142442,,1863,0
1620713832701,142463,,1847,0
1620713832701,142483,,1843,0
1620713832701,142503,,1826,0
1620713832701,142523,,1907,0
1620713832701,142543,,1904,0
1620713832701,142563,,1883,0
1620713832701,142583,,1851,0
1620713832701,142603,,1802,0
1620713833198,142623,,1827,0
1620713833198,142643,,1908,0
1620713833198,142663,,1974,0
1620713833198,142684,,1924,0
1620713833198,142704,,1765,0
1620713833198,142724,,1731,0
1620713833198,142744,,1671,0
1620713833198,142764,,1638,0
1620713833198,142784,,1667,0
1620713833198,142804,,1712,0
1620713833198,142824,,1862,0
1620713833198,142844,,1966,0
1620713833198,142864,,2054,0
1620713833198,142884,,2091,0
1620713833198,142905,,2039,0
1620713833198,142925,,2013,0
1620713833198,142945,,1935,0
1620713833198,142965,,1841,0
1620713833198,142985,,1774,0
1620713833198,143005,,1759,0
1620713833198,143025,,1847,0
1620713833198,143045,,1968,0
1620713833198,143065,,2109,0
1620713833198,143085,,2217,0
1620713833198,143105,,2270,0
1620713833702,143125,,2257,0
1620713833702,143145,,2333,0
1620713833702,143165,,2353,0
1620713833702,143185,,2247,0
1620713833702,143205,,2064,0
1620713833702,143225,,1942,0
1620713833702,143245,,1895,0
1620713833702,143265,,1858,0
1620713833702,143285,,1851,0
1620713833702,143305,,1870,0
1620713833702,143325,,1909,0
1620713833702,143346,,1975,0
1620713833702,143366,,1998,0
1620713833702,143386,,2000,0
1620713833702,143406,,1990,0
1620713833702,143426,,1968,0
1620713833702,143446,,1981,0
1620713833702,143466,,1942,0
1620713833702,143486,,1905,0
1620713833702,143506,,1872,0
1620713833702,143526,,1831,0
1620713833702,143546,,1861,0
1620713833702,143567,,1854,0
1620713833702,143587,,1846,0
1620713833702,143607,,1845,0
1620713834203,143627,,1836,0
1620713834203,143647,,1939,0
1620713834203,143667,,2032,0
1620713834203,143687,,1979,0
1620713834203,143707,,1845,0
1620713834203,143727,,1718,0
1620713834203,143747,,1745,0
1620713834203,143767,,1771,0
1620713834203,143788,,1857,0
1620713834203,143808,,1960,0
1620713834203,143828,,2023,0
1620713834203,143848,,2126,0
1620713834203,143868,,2112,0
1620713834203,143888,,2039,0
1620713834203,143908,,1951,0
1620713834203,143928,,1857,0
1620713834203,143948,,1855,0
1620713834203,143968,,1843,0
1620713834203,143988,,1824,0
1620713834203,144009,,1809,0
1620713834203,144029,,1813,0
1620713834203,144049,,1840,0
1620713834203,144069,,1859,0
1620713834203,144089,,1875,0
1620713834203,144109,,1895,0
1620713834706,144129,,1908,0
1620713834706,144149,,2022,0
1620713834706,144169,,2124,1
1620713834706,144189,,2039,1
1620713834706,144209,,1872,1
1620713834706,144230,,1733,1
1620713834706,144250,,1680,1
1620713834706,144270,,1673,1
1620713834706,144290,,1657,1
1620713834706,144310,,1669,1
1620713834706,144330,,1716,1
1620713834706,144350,,1797,1
1620713834706,144370,,1902,1
1620713834706,144390,,1925,1
1620713834706,144410,,1910,1
1620713834706,144430,,1872,1
1620713834706,144451,,1882,1
1620713834706,144471,,1936,1
1620713834706,144491,,1959,1
1620713834706,144511,,1986,1
1620713834706,144531,,2066,1
1620713834706,144551,,2162,1
1620713834706,144571,,2304,1
1620713834706,144591,,2351,1
1620713834706,144611,,2337,1
1620713835212,144631,,2271,1
1620713835212,144651,,2290,1
1620713835212,144672,,2293,1
1620713835212,144692,,2135,1
1620713835212,144712,,1913,1
1620713835212,144732,,1764,1
1620713835212,144752,,1636,1
1620713835212,144772,,1664,1
1620713835212,144792,,1665,1
1620713835212,144812,,1687,1
1620713835212,144832,,1738,1
1620713835212,144852,,1773,1
1620713835212,144872,,1866,1
1620713835212,144893,,1882,1
1620713835212,144913,,1872,1
1620713835212,144933,,1861,1
1620713835212,144953,,1834,1
1620713835212,144973,,1851,1
1620713835212,144993,,1820,1
1620713835212,145013,,1783,1
1620713835212,145033,,1744,1
1620713835212,145053,,1719,1
1620713835212,145073,,1729,1
1620713835212,145093,,1727,1
1620713835212,145114,,1712,1
1620713835716,145134,,1687,1
1620713835716,145154,,1790,1
1620713835716,145174,,1877,1
1620713835716,145194,,1850,1
1620713835716,145214,,1740,1
1620713835716,145234,,1654,1
1620713835716,145254,,1600,1
1620713835716,145274,,1598,1
1620713835716,145294,,1645,1
1620713835716,145314,,1714,1
1620713835716,145335,,1839,1
1620713835716,145355,,1947,1
1620713835716,145375,,2034,1
1620713835716,145395,,2070,1
1620713835716,145415,,2026,1
1620713835716,145435,,1952,1
1620713835716,145455,,1879,1
1620713835716,145475,,1823,1
1620713835716,145495,,1805,1
1620713835716,145515,,1766,1
1620713835716,145535,,1730,1
1620713835716,145556,,1709,1
1620713835716,145576,,1674,1
1620713835716,145596,,1760,1
1620713835716,145616,,1767,1
1620713836210,145636,,1801,1
1620713836210,145656,,1953,1
1620713836210,145676,,2038,1
1620713836210,145696,,2083,1
1620713836210,145716,,1965,1
1620713836210,145736,,1853,1
1620713836210,145756,,1769,1
1620713836210,145777,,1690,1
1620713836210,145797,,1729,1
1620713836210,145817,,1726,1
1620713836210,145837,,1734,1
1620713836210,145857,,1747,1
1620713836210,145877,,1733,1
1620713836210,145897,,1801,1
1620713836210,145917,,1789,1
1620713836210,145937,,1763,1
1620713836210,145957,,1744,1
1620713836210,145977,,1747,1
1620713836210,145998,,1859,1
1620713836210,146018,,1949,1
1620713836210,146038,,2032,1
1620713836210,146058,,2110,1
1620713836210,146078,,2143,1
1620713836210,146098,,2181,0
1620713836210,146118,,2152,0
1620713836717,146138,,2083,0
1620713836717,146158,,2136,0
1620713836717,146178,,2186,0
1620713836717,146198,,2162,0
1620713836717,146219,,2018,0
1620713836717,146239,,1892,0
1620713836717,146259,,1810,0
1620713836717,146279,,1792,0
1620713836717,146299,,1834,0
1620713836717,146319,,1872,0
1620713836717,146339,,1900,0
1620713836717,146359,,1917,0
1620713836717,146379,,1908,0
1620713836717,146399,,1884,0
1620713836717,146419,,1851,0
1620713836717,146440,,1806,0
1620713836717,146460,,1782,0
1620713836717,146480,,1776,0
1620713836717,146500,,1792,0
1620713836717,146520,,1820,0
1620713836717,146540,,1821,0
1620713836717,146560,,1817,0
1620713836717,146580,,1813,0
1620713836717,146600,,1817,0
1620713836717,146620,,1847,0
1620713837222,146640,,1836,0
1620713837222,146661,,1940,0
1620713837222,146681,,2047,0
1620713837222,146701,,2022,0
1620713837222,146721,,2045,0
1620713837222,146741,,2047,0
1620713837222,146761,,2071,0
1620713837222,146781,,2091,0
1620713837222,146801,,2066,0
1620713837222,146821,,2111,0
1620713837222,146841,,2079,0
1620713837222,146861,,2029,0
1620713837222,146882,,1977,0
1620713837222,146902,,1907,0
1620713837222,146922,,1936,0
1620713837222,146942,,1895,0
1620713837222,146962,,1865,0
1620713837222,146982,,1840,0
1620713837222,147002,,1803,0
1620713837222,147022,,1856,0
1620713837222,147042,,1968,0
1620713837222,147062,,2032,0
1620713837222,147082,,2038,0
1620713837222,147103,,2018,1
1620713837222,147123,,1989,1
1620713837727,147143,,1825,1
1620713837727,147163,,1822,1
1620713837727,147183,,1861,1
1620713837727,147203,,1808,1
1620713837727,147223,,1712,1
1620713837727,147243,,1781,1
1620713837727,147263,,1866,1
1620713837727,147283,,1921,1
1620713837727,147303,,1958,1
1620713837727,147324,,1998,1
1620713837727,147344,,1893,1
1620713837727,147364,,1805,1
1620713837727,147384,,1779,1
1620713837727,147404,,1816,1
1620713837727,147424,,1922,1
1620713837727,147444,,2060,1
1620713837727,147464,,2155,1
1620713837727,147484,,2206,1
1620713837727,147504,,2215,1
1620713837727,147524,,2185,1
1620713837727,147544,,2143,1
1620713837727,147564,,2058,1
1620713837727,147584,,1972,1
1620713837727,147604,,1904,1
1620713837727,147624,,1857,1
1620713838234,147644,,1863,1
1620713838234,147664,,1946,1
1620713838234,147684,,2032,1
1620713838234,147704,,1990,1
1620713838234,147724,,1872,1
1620713838234,147744,,1851,1
1620713838234,147765,,1815,1
1620713838234,147785,,1807,1
1620713838234,147805,,1810,1
1620713838234,147825,,1801,1
1620713838234,147845,,1865,1
1620713838234,147865,,1861,1
1620713838234,147885,,1853,1
1620713838234,147905,,1847,1
1620713838234,147925,,1829,1
1620713838234,147945,,1900,1
1620713838234,147965,,1910,1
1620713838234,147986,,1904,1
1620713838234,148006,,1893,1
1620713838234,148026,,1862,1
1620713838234,148046,,1920,1
1620713838234,148066,,1927,1
1620713838234,148086,,1959,1
1620713838234,148106,,2017,1
1620713838234,148126,,2082,1
1620713838751,148146,,2165,1
1620713838751,148166,,2320,1
1620713838751,148186,,2416,1
1620713838751,148207,,2351,1
1620713838751,148227,,2182,1
1620713838751,148247,,2047,1
1620713838751,148267,,1959,1
1620713838751,148287,,1900,1
1620713838751,148307,,1873,1
1620713838751,148327,,1875,1
1620713838751,148347,,1898,1
1620713838751,148367,,1915,1
1620713838751,148387,,1917,1
1620713838751,148407,,1920,1
1620713838751,148428,,1925,1
1620713838751,148448,,1937,1
1620713838751,148468,,1939,1
1620713838751,148488,,1899,1
1620713838751,148508,,1863,1
1620713838751,148528,,1823,1
1620713838751,148548,,1786,1
1620713838751,148568,,1808,1
1620713838751,148588,,1775,1
1620713838751,148608,,1735,1
1620713838751,148628,,1718,1
1620713839228,148648,,1705,1
1620713839228,148668,,1821,1
1620713839228,148688,,1921,1
1620713839228,148708,,1919,1
1620713839228,148728,,1808,1
1620713839228,148748,,1726,1
1620713839228,148768,,1744,1
1620713839228,148788,,1745,1
1620713839228,148808,,1814,1
1620713839228,148828,,1940,1
1620713839228,148848,,2047,1
1620713839228,148869,,2244,1
1620713839228,148889,,2306,1
1620713839228,148909,,2304,1
1620713839228,148929,,2255,1
1620713839228,148949,,2144,1
1620713839228,148969,,2148,1
1620713839228,148989,,2077,1
1620713839228,149009,,1993,1
1620713839228,149029,,1936,1
1620713839228,149049,,1885,1
1620713839228,149069,,1904,1
1620713839228,149090,,1885,1
1620713839228,149110,,1872,1
1620713839228,149130,,1870,1
1620713839731,149150,,1871,1
1620713839731,149170,,1983,1
1620713839731,149190,,2082,1
1620713839731,149210,,2047,1
1620713839731,149230,,1917,1
1620713839731,149250,,1816,1
1620713839731,149271,,1738,1
1620713839731,149291,,1796,1
1620713839731,149312,,1883,1
1620713839731,149332,,1945,1
1620713839731,149352,,1850,1
1620713839731,149372,,1750,1
1620713839731,149392,,1808,1
1620713839731,149412,,1863,1
1620713839731,149432,,1897,1
1620713839731,149452,,1888,1
1620713839731,149472,,1917,1
1620713839731,149492,,1798,1
1620713839731,149512,,1700,1
1620713839731,149533,,1662,1
1620713839731,149553,,1674,1
1620713839731,149573,,1725,1
1620713839731,149593,,1808,1
1620713839731,149613,,1901,1
1620713839731,149633,,2021,1
1620713838234,147664,,1946,1
1620713838234,147684,,2032,1
1620713838234,147704,,1990,1
1620713838234,147724,,1872,1
1620713838234,147744,,1851,1
1620713838234,147765,,1815,1
1620713838234,147785,,1807,1
1620713838234,147805,,1810,1
1620713838234,147825,,1801,1
1620713838234,147845,,1865,1
1620713838234,147865,,1861,1
1620713838234,147885,,1853,1
