localTime,remoteTime,label,bvp,signalOK
1620713765849,138349,,1493,0
1620713765849,138370,,1673,0
1620713765849,138390,,1850,0
1620713765849,138410,,2094,0
1620713765849,138430,,2153,0
1620713765849,138450,,2320,0
1620713765849,138470,,2353,0
1620713765849,138490,,2278,0
1620713765849,138510,,2160,0
1620713765849,138530,,1939,0
1620713765849,138550,,1910,0
1620713765849,138570,,1839,0
1620713765849,138590,,1707,0
1620713765849,138610,,1599,0
1620713765849,138630,,1456,0
1620713765849,138650,,1528,0
1620713765849,138670,,1584,0
1620713765849,138690,,1535,0
1620713765849,138710,,1514,0
1620713765849,138730,,1488,0
1620713765849,138750,,1520,0
1620713765849,138770,,1520,0
1620713765849,138790,,1496,0
1620713765849,138810,,1477,0
1620713765849,138830,,1404,0
1620713766338,138851,,1463,0
1620713766338,138871,,1682,0
1620713766338,138891,,1883,0
1620713766338,138911,,2125,0
1620713766338,138931,,2212,0
1620713766338,138951,,2253,0
1620713766338,138971,,2209,0
1620713766338,138991,,2131,0
1620713766338,139011,,2032,0
1620713766338,139031,,1904,0
1620713766338,139051,,1849,0
1620713766338,139071,,1770,0
1620713766338,139091,,1694,0
1620713766338,139111,,1639,0
1620713766338,139131,,1567,0
1620713766338,139151,,1535,0
1620713766338,139171,,1679,0
1620713766338,139191,,1692,0
1620713766338,139211,,1655,0
1620713766338,139231,,1593,0
1620713766338,139251,,1593,0
1620713766338,139271,,1535,0
1620713766338,139291,,1499,0
1620713766338,139311,,1463,0
1620713766338,139331,,1456,0
1620713766837,139351,,1451,0
1620713766837,139371,,1684,0
1620713766837,139391,,1949,0
1620713766837,139411,,2225,0
1620713766837,139431,,2332,0
1620713766837,139451,,2288,0
1620713766837,139471,,2366,0
1620713766837,139491,,2315,0
1620713766837,139511,,2175,0
1620713766837,139531,,2000,0
1620713766837,139551,,1844,0
1620713766837,139571,,1751,0
1620713766837,139591,,1678,0
1620713766837,139611,,1617,0
1620713766837,139631,,1594,0
1620713766837,139651,,1582,0
1620713766837,139671,,1618,0
1620713766837,139691,,1632,0
1620713766837,139711,,1626,0
1620713766837,139731,,1602,0
1620713766837,139751,,1486,0
1620713766837,139771,,1493,0
1620713766837,139791,,1602,0
1620713766837,139811,,1628,0
1620713766837,139831,,1718,0
1620713767339,139851,,1831,0
1620713767339,139871,,2146,0
1620713767339,139891,,2427,0
1620713767339,139911,,2688,0
1620713767339,139931,,2692,0
1620713767339,139951,,2495,0
1620713767339,139971,,2309,0
1620713767339,139991,,2240,0
1620713767339,140011,,2055,0
1620713767339,140031,,1847,0
1620713767339,140051,,1669,0
1620713767339,140071,,1529,0
1620713767339,140091,,1606,0
1620713767339,140111,,1598,0
1620713767339,140131,,1564,0
1620713767339,140151,,1520,0
1620713767339,140171,,1461,0
1620713767339,140191,,1579,0
1620713767339,140211,,1586,0
1620713767339,140231,,1527,0
1620713767339,140251,,1486,0
1620713767339,140271,,1502,0
1620713767339,140291,,1655,0
1620713767339,140311,,1887,0
1620713767339,140331,,2160,0
1620713767837,140351,,2352,0
1620713767837,140371,,2608,0
1620713767837,140391,,2757,0
1620713767837,140411,,2753,0
1620713767837,140431,,2678,0
1620713767837,140451,,2384,0
1620713767837,140471,,2006,0
1620713767837,140491,,1826,0
1620713767837,140511,,1730,0
1620713767837,140531,,1578,0
1620713767837,140551,,1457,0
1620713767837,140571,,1392,0
1620713767837,140591,,1413,0
1620713767837,140611,,1430,0
1620713767837,140631,,1456,0
1620713767837,140651,,1474,0
1620713767837,140671,,1445,0
1620713767837,140691,,1492,0
1620713767837,140711,,1621,0
1620713767837,140731,,1634,0
1620713767837,140751,,1679,0
1620713767837,140771,,1772,0
1620713767837,140791,,2074,0
1620713767837,140811,,2347,0
1620713767837,140831,,2559,0
1620713768339,140851,,2626,0
1620713768339,140871,,2697,0
1620713768339,140891,,2659,0
1620713768339,140911,,2559,0
1620713768339,140931,,2314,0
1620713768339,140951,,2000,0
1620713768339,140971,,1759,0
1620713768339,140991,,1578,0
1620713768339,141011,,1473,0
1620713768339,141031,,1421,0
1620713768339,141051,,1399,0
1620713768339,141071,,1407,0
1620713768339,141091,,1381,0
1620713768339,141111,,1535,0
1620713768339,141131,,1594,0
1620713768339,141151,,1571,0
1620713768339,141171,,1520,0
1620713768339,141191,,1433,0
1620713768339,141211,,1559,0
1620713768339,141231,,1735,0
1620713768339,141251,,1915,0
1620713768339,141271,,2136,0
1620713768339,141292,,2294,0
1620713768339,141312,,2559,0
1620713768339,141332,,2717,0
1620713768839,141352,,2559,0
1620713768839,141372,,2438,0
1620713768839,141392,,2279,0
1620713768839,141412,,2164,0
1620713768839,141432,,1905,0
1620713768839,141452,,1697,0
1620713768839,141472,,1520,0
1620713768839,141492,,1376,0
1620713768839,141512,,1376,0
1620713768839,141532,,1497,0
1620713768839,141552,,1507,0
1620713768839,141572,,1493,0
1620713768839,141592,,1424,0
1620713768839,141612,,1445,0
1620713768839,141632,,1535,0
1620713768839,141652,,1531,0
1620713768839,141672,,1509,0
1620713768839,141692,,1499,0
1620713768839,141712,,1648,0
1620713768839,141732,,2021,0
1620713768839,141752,,2287,0
1620713768839,141772,,2496,0
1620713768839,141792,,2559,0
1620713768839,141812,,2550,0
1620713768839,141832,,2559,0
1620713769338,141852,,2350,0
1620713769338,141872,,2149,0
1620713769338,141892,,1985,0
1620713769338,141912,,1808,0
1620713769338,141932,,1728,0
1620713769338,141952,,1583,0
1620713769338,141972,,1431,0
1620713769338,141992,,1347,0
1620713769338,142012,,1311,0
1620713769338,142032,,1360,0
1620713769338,142052,,1382,0
1620713769338,142072,,1413,0
1620713769338,142092,,1442,0
1620713769338,142112,,1403,0
1620713769338,142132,,1521,0
1620713769338,142152,,1622,0
1620713769338,142172,,1661,0
1620713769338,142192,,1773,0
1620713769338,142212,,1907,0
1620713769338,142232,,2251,0
1620713769338,142252,,2557,0
1620713769338,142272,,2702,0
1620713769338,142292,,2672,0
1620713769338,142312,,2512,0
1620713769338,142332,,2337,0
1620713769840,142352,,2045,0
1620713769840,142372,,1889,0
1620713769840,142392,,1783,0
1620713769840,142412,,1703,0
1620713769840,142432,,1601,0
1620713769840,142452,,1605,0
1620713769840,142472,,1520,0
1620713769840,142492,,1454,0
1620713769840,142512,,1369,0
1620713769840,142532,,1363,0
1620713769840,142553,,1519,0
1620713769840,142573,,1535,0
1620713769840,142593,,1503,0
1620713769840,142613,,1442,0
1620713769840,142633,,1441,0
1620713769840,142653,,1683,0
1620713769840,142673,,1889,0
1620713769840,142693,,2142,0
1620713769840,142713,,2354,0
1620713769840,142733,,2544,0
1620713769840,142753,,2779,0
1620713769840,142773,,2761,0
1620713769840,142793,,2550,0
1620713769840,142813,,2289,0
1620713769840,142833,,2032,0
1620713770338,142853,,1729,0
1620713770338,142873,,1607,0
1620713770338,142893,,1559,0
1620713770338,142913,,1586,0
1620713770338,142933,,1437,0
1620713770338,142953,,1470,0
1620713770338,142973,,1482,0
1620713770338,142993,,1438,0
1620713770338,143013,,1399,0
1620713770338,143033,,1387,0
1620713770338,143053,,1412,0
1620713770338,143073,,1425,0
1620713770338,143093,,1455,0
1620713770338,143113,,1523,0
1620713770338,143133,,1607,0
1620713770338,143153,,1847,0
1620713770338,143173,,2259,0
1620713770338,143193,,2595,0
1620713770338,143213,,2864,0
1620713770338,143233,,2821,0
1620713770338,143253,,2686,0
1620713770338,143273,,2512,0
1620713770338,143293,,2210,0
1620713770338,143313,,1897,0
1620713770338,143333,,1598,0
1620713770842,143354,,1445,0
1620713770842,143374,,1423,0
1620713770842,143394,,1440,0
1620713770842,143414,,1520,0
1620713770842,143434,,1462,0
1620713770842,143454,,1397,0
1620713770842,143474,,1477,0
1620713770842,143494,,1446,0
1620713770842,143514,,1408,0
1620713770842,143534,,1344,0
1620713770842,143554,,1335,0
1620713770842,143574,,1490,0
1620713770842,143594,,1597,0
1620713770842,143614,,1738,0
1620713770842,143634,,1934,0
1620713770842,143654,,2169,0
1620713770842,143674,,2527,0
1620713770842,143694,,2706,0
1620713770842,143714,,2688,0
1620713770842,143734,,2521,0
1620713770842,143754,,2258,0
1620713770842,143774,,2145,0
1620713770842,143794,,1942,0
1620713770842,143814,,1717,0
1620713770842,143834,,1535,0
1620713771341,143855,,1360,0
1620713771341,143875,,1365,0
1620713771341,143895,,1418,0
1620713771341,143915,,1471,0
1620713771341,143935,,1562,0
1620713771341,143955,,1454,0
1620713771341,143975,,1445,0
1620713771341,143995,,1527,0
1620713771341,144015,,1494,0
1620713771341,144035,,1430,0
1620713771341,144055,,1330,0
1620713771341,144075,,1411,0
1620713771341,144095,,1670,0
1620713771341,144115,,1979,0
1620713771341,144135,,2328,0
1620713771341,144155,,2499,0
1620713771341,144175,,2590,0
1620713771341,144195,,2601,0
1620713771341,144215,,2487,0
1620713771341,144235,,2363,0
1620713771341,144255,,2069,0
1620713771341,144275,,1791,0
1620713771341,144295,,1675,0
1620713771341,144315,,1485,0
1620713771341,144335,,1355,0
1620713771842,144355,,1216,0
1620713771842,144375,,1259,0
1620713771842,144395,,1344,0
1620713771842,144415,,1497,0
1620713771842,144435,,1505,0
1620713771842,144455,,1436,0
1620713771842,144475,,1405,0
1620713771842,144496,,1520,0
1620713771842,144516,,1499,0
1620713771842,144536,,1446,0
1620713771842,144556,,1397,0
1620713771842,144576,,1437,0
1620713771842,144596,,1741,0
1620713771842,144616,,2031,0
1620713771842,144636,,2272,0
1620713771842,144656,,2442,0
1620713771842,144676,,2482,0
1620713771842,144696,,2599,0
1620713771842,144716,,2499,0
1620713771842,144736,,2285,0
1620713771842,144756,,2057,0
1620713771842,144776,,1743,0
1620713771842,144796,,1690,0
1620713771842,144816,,1623,0
1620713771842,144836,,1521,0
1620713772341,144856,,1387,0
1620713772341,144876,,1403,0
1620713772341,144896,,1488,0
1620713772341,144916,,1610,0
1620713772341,144936,,1574,0
1620713772341,144956,,1503,0
1620713772341,144976,,1452,0
1620713772341,144996,,1445,0
1620713772341,145016,,1434,0
1620713772341,145036,,1455,0
1620713772341,145056,,1565,0
1620713772341,145076,,1695,0
1620713772341,145096,,1998,0
1620713772341,145116,,2428,0
1620713772341,145136,,2626,0
1620713772341,145156,,2687,1
1620713772341,145176,,2550,1
1620713772341,145196,,2406,1
1620713772341,145216,,2320,1
1620713772341,145236,,2065,1
1620713772341,145256,,1798,1
1620713772341,145276,,1568,1
1620713772341,145296,,1467,1
1620713772341,145316,,1392,1
1620713772341,145336,,1373,1
1620713772841,145356,,1319,1
1620713772841,145376,,1392,1
1620713772841,145396,,1500,1
1620713772841,145416,,1664,1
1620713772841,145436,,1646,1
1620713772841,145456,,1565,1
1620713772841,145476,,1465,1
1620713772841,145496,,1356,1
1620713772841,145516,,1473,1
1620713772841,145536,,1577,1
1620713772841,145556,,1723,1
1620713772841,145576,,1962,1
1620713772841,145596,,2210,1
1620713772841,145616,,2450,1
1620713772841,145636,,2544,1
1620713772841,145656,,2526,1
1620713772841,145676,,2395,1
1620713772841,145696,,2203,1
1620713772841,145716,,1980,1
1620713772841,145736,,1771,1
1620713772841,145756,,1594,1
1620713772841,145776,,1469,1
1620713772841,145796,,1328,1
1620713772841,145816,,1354,1
1620713772841,145836,,1409,1
1620713773363,145857,,1465,1
1620713773363,145877,,1499,1
1620713773363,145897,,1532,1
1620713773363,145917,,1563,1
1620713773363,145937,,1471,1
1620713773363,145957,,1362,1
1620713773363,145977,,1309,1
1620713773363,145997,,1258,1
1620713773363,146017,,1389,1
1620713773363,146037,,1701,1
1620713773363,146057,,1981,1
1620713773363,146077,,2251,1
1620713773363,146097,,2402,1
1620713773363,146117,,2546,1
1620713773363,146137,,2702,1
1620713773363,146157,,2582,1
1620713773363,146177,,2346,1
1620713773363,146197,,2059,1
1620713773363,146217,,1796,1
1620713773363,146237,,1739,1
1620713773363,146257,,1599,1
1620713773363,146277,,1466,1
1620713773363,146297,,1362,1
1620713773363,146317,,1363,1
1620713773363,146337,,1364,1
1620713773845,146357,,1311,1
1620713773845,146377,,1374,1
1620713773845,146397,,1477,1
1620713773845,146417,,1535,1
1620713773845,146437,,1651,1
1620713773845,146457,,1619,1
1620713773845,146477,,1533,1
1620713773845,146497,,1499,1
1620713773845,146517,,1510,1
1620713773845,146537,,1808,1
1620713773845,146557,,2083,1
1620713773845,146577,,2267,1
1620713773845,146597,,2370,1
1620713773845,146617,,2398,1
1620713773845,146637,,2370,1
1620713773845,146657,,2237,1
1620713773845,146677,,2047,1
1620713773845,146697,,1867,1
1620713773845,146717,,1648,1
1620713773845,146737,,1600,1
1620713773845,146757,,1599,1
1620713773845,146777,,1511,1
1620713773845,146797,,1441,1
1620713773845,146817,,1344,1
1620713773845,146837,,1369,1
1620713774348,146857,,1435,1
1620713774348,146877,,1501,1
1620713774348,146897,,1556,1
1620713774348,146917,,1589,1
1620713774348,146937,,1535,1
1620713774348,146957,,1579,1
1620713774348,146977,,1505,1
1620713774348,146997,,1474,1
1620713774348,147017,,1490,1
1620713774348,147037,,1733,1
1620713774348,147057,,1983,1
1620713774348,147077,,2172,1
1620713774348,147097,,2303,1
1620713774348,147117,,2302,1
1620713774348,147137,,2323,1
1620713774348,147157,,2254,1
1620713774348,147177,,2105,1
1620713774348,147197,,1946,1
1620713774348,147217,,1797,1
1620713774348,147237,,1681,1
1620713774348,147257,,1610,1
1620713774348,147277,,1535,1
1620713774348,147297,,1527,1
1620713774348,147317,,1502,1
1620713774348,147337,,1511,1
1620713774843,147358,,1478,1
1620713774843,147378,,1535,1
1620713774843,147398,,1600,1
1620713774843,147418,,1680,1
1620713774843,147438,,1616,1
1620713774843,147458,,1564,1
1620713774843,147478,,1555,1
1620713774843,147498,,1653,1
1620713774843,147518,,1854,1
1620713774843,147538,,2020,1
1620713774843,147558,,2320,0
1620713774843,147578,,2544,0
1620713774843,147598,,2545,0
1620713774843,147618,,2448,0
1620713774843,147638,,2267,0
1620713774843,147658,,2114,0
1620713774843,147678,,1923,0
1620713774843,147698,,1754,0
1620713774843,147718,,1620,0
1620713774843,147738,,1511,0
1620713774843,147758,,1498,0
1620713774843,147778,,1486,0
1620713774843,147798,,1486,0
1620713774843,147818,,1493,0
1620713774843,147838,,1451,0
1620713775346,147859,,1477,0
1620713775346,147879,,1561,0
1620713775346,147899,,1596,0
1620713775346,147919,,1607,0
1620713775346,147939,,1647,0
1620713775346,147959,,1787,0
1620713775346,147979,,1903,0
1620713775346,147999,,2081,0
1620713775346,148019,,2256,0
1620713775346,148039,,2384,0
1620713775346,148059,,2512,0
1620713775346,148079,,2497,0
1620713775346,148099,,2378,0
1620713775346,148119,,2218,0
1620713775346,148139,,1991,0
1620713775346,148159,,1842,0
1620713775346,148179,,1691,0
1620713775346,148199,,1578,0
1620713775346,148219,,1490,0
1620713775346,148239,,1423,0
1620713775346,148259,,1424,0
1620713775346,148279,,1449,0
1620713775346,148299,,1461,0
1620713775346,148319,,1479,0
1620713775346,148339,,1489,0
1620713775846,148359,,1430,0
1620713775846,148379,,1504,0
1620713775846,148399,,1589,0
1620713775846,148419,,1729,0
1620713775846,148439,,1794,0
1620713775846,148459,,1919,0
1620713775846,148479,,2162,0
1620713775846,148499,,2354,0
1620713775846,148519,,2486,0
1620713775846,148539,,2487,0
1620713775846,148559,,2445,0
1620713775846,148579,,2383,0
1620713775846,148600,,2314,0
1620713775846,148620,,2090,0
1620713775846,148640,,1842,0
1620713775846,148660,,1600,0
1620713775846,148680,,1481,0
1620713775846,148700,,1410,0
1620713775846,148720,,1382,0
1620713775846,148740,,1387,0
1620713775846,148760,,1381,0
1620713775846,148780,,1456,0
1620713775846,148800,,1491,0
1620713775846,148820,,1514,0
1620713775846,148840,,1515,0
1620713776346,148860,,1445,0
1620713776346,148880,,1505,0
1620713776346,148900,,1627,0
1620713776346,148920,,1867,0
1620713776346,148940,,2011,0
1620713776346,148960,,2145,0
1620713776346,148980,,2365,0
1620713776346,149000,,2490,0
1620713776346,149020,,2512,0
1620713776346,149040,,2450,0
1620713776346,149060,,2304,0
1620713776346,149080,,2128,0
1620713776346,149100,,1948,0
1620713776346,149120,,1773,0
1620713776346,149140,,1648,0
1620713776346,149160,,1522,0
1620713776346,149180,,1479,0
1620713776346,149200,,1469,0
1620713776346,149220,,1463,0
1620713776346,149240,,1460,0
1620713776346,149260,,1474,0
1620713776346,149280,,1488,0
1620713776346,149300,,1523,0
1620713776346,149320,,1520,0
1620713776346,149340,,1523,0
1620713776846,149360,,1482,0
1620713776846,149380,,1584,0
1620713776846,149400,,1807,0
1620713776846,149420,,2084,0
1620713776846,149440,,2398,0
1620713776846,149460,,2559,0
1620713776846,149480,,2589,0
1620713776846,149500,,2553,0
1620713776846,149520,,2410,0
1620713776846,149540,,2232,0
1620713776846,149560,,2002,0
1620713776846,149580,,1789,0
1620713776846,149600,,1662,0
1620713776846,149620,,1535,0
1620713776846,149640,,1483,0
1620713776846,149660,,1453,0
1620713776846,149680,,1424,0
1620713776846,149700,,1497,0
1620713776846,149720,,1523,0
1620713776846,149740,,1535,0
1620713776846,149760,,1535,0
1620713776846,149780,,1518,0
1620713776846,149800,,1567,0
1620713776846,149820,,1588,0
1620713776846,149840,,1622,0
1620713777346,149860,,1671,0
1620713777346,149880,,1937,0
1620713777346,149900,,2277,0
1620713777346,149920,,2700,0
1620713777346,149940,,2878,0
1620713777346,149960,,2887,0
1620713777346,149980,,2721,0
1620713777346,150000,,2501,0
1620713777346,150020,,2243,0
1620713777346,150040,,1970,0
1620713777346,150060,,1712,0
1620713777346,150080,,1520,0
1620713777346,150101,,1399,0
1620713777346,150121,,1370,0
1620713777346,150141,,1366,0
1620713777346,150161,,1383,0
1620713777346,150181,,1419,0
1620713777346,150201,,1462,0
1620713777346,150221,,1535,0
1620713777346,150241,,1590,0
1620713777346,150261,,1638,0
1620713777346,150281,,1701,0
1620713777346,150301,,1783,0
1620713777346,150321,,2013,0
1620713777346,150341,,2275,0
1620713777848,150361,,2478,0
1620713777848,150381,,2765,0
1620713777848,150401,,3029,0
1620713777848,150421,,3264,0
1620713777848,150441,,3093,0
1620713777848,150461,,2604,0
1620713777848,150481,,1749,0
1620713777848,150501,,228,0
1620713777848,150521,,0,0
1620713777848,150541,,0,0
1620713777848,150561,,0,0
1620713777848,150581,,0,0
1620713777848,150601,,0,0
1620713777848,150621,,0,0
1620713777848,150641,,0,0
1620713777848,150661,,0,0
1620713777848,150681,,0,0
1620713777848,150701,,0,0
1620713777848,150721,,0,0
1620713777848,150741,,0,0
1620713777848,150761,,0,0
1620713777848,150781,,0,0
1620713777848,150801,,0,0
1620713777848,150821,,0,0
1620713777848,150841,,0,0
1620713778347,150861,,0,0
1620713778347,150881,,0,0
1620713778347,150901,,0,0
1620713778347,150921,,0,0
1620713778347,150941,,0,0
1620713778347,150961,,0,0
1620713778347,150981,,0,0
1620713778347,151001,,0,0
1620713778347,151021,,0,0
1620713778347,151041,,0,0
1620713778347,151061,,0,0
1620713778347,151081,,0,0
1620713778347,151101,,0,0
1620713778347,151121,,0,0
1620713778347,151141,,0,0
1620713778347,151161,,0,0
1620713778347,151181,,0,0
1620713778347,151201,,0,0
1620713778347,151221,,0,0
1620713778347,151241,,0,0
1620713778347,151261,,0,0
1620713778347,151281,,0,0
1620713778347,151301,,0,0
1620713778347,151321,,0,0
1620713778347,151341,,0,0
1620713778847,151361,,0,1
1620713778847,151381,,0,1
1620713778847,151401,,0,1
1620713778847,151421,,0,1
1620713778847,151441,,0,1
1620713778847,151461,,0,1
1620713778847,151481,,0,1
1620713778847,151501,,0,1
1620713778847,151521,,0,1
1620713778847,151541,,0,1
1620713778847,151561,,0,1
1620713778847,151581,,851,1
1620713778847,151601,,1694,1
1620713778847,151621,,2179,1
1620713778847,151641,,2373,1
1620713778847,151661,,2270,1
1620713778847,151681,,2064,1
1620713778847,151701,,1850,1
1620713778847,151721,,1672,1
1620713778847,151741,,1590,1
1620713778847,151761,,1585,1
1620713778847,151781,,1597,1
1620713778847,151801,,1619,1
1620713778847,151821,,1631,1
1620713778847,151841,,1639,1
1620713779346,151861,,1581,1
1620713779346,151881,,1615,1
1620713779346,151901,,1648,1
1620713779346,151921,,1648,1
1620713779346,151941,,1475,1
1620713779346,151961,,1341,1
1620713779346,151981,,1242,1
1620713779346,152001,,1216,1
1620713779346,152021,,1253,1
1620713779346,152041,,1317,1
1620713779346,152061,,1485,1
1620713779346,152081,,1557,1
1620713779346,152101,,1579,1
1620713779346,152121,,1579,1
1620713779346,152141,,1535,1
1620713779346,152161,,1566,1
1620713779346,152181,,1535,1
1620713779346,152201,,1531,1
1620713779346,152221,,1558,1
1620713779346,152241,,1616,1
1620713779346,152261,,1766,1
1620713779346,152281,,1858,1
1620713779346,152301,,1922,0
1620713779346,152321,,1959,0
1620713779346,152341,,1917,0
1620713779849,152361,,1869,0
1620713779849,152381,,1867,0
1620713779849,152401,,1857,0
1620713779849,152421,,1837,0
1620713779849,152441,,1648,0
1620713779849,152462,,1527,0
1620713779849,152482,,1438,0
1620713779849,152502,,1391,0
1620713779849,152522,,1396,0
1620713779849,152542,,1425,0
1620713779849,152562,,1507,0
1620713779849,152582,,1581,0
1620713779849,152602,,1619,0
1620713779849,152622,,1638,0
1620713779849,152642,,1629,0
1620713779849,152662,,1661,0
1620713779849,152682,,1669,0
1620713779849,152702,,1678,0
1620713779849,152722,,1715,0
1620713779849,152742,,1778,0
1620713779849,152762,,1862,0
1620713779849,152782,,1942,0
1620713779849,152802,,1939,0
1620713779849,152822,,1893,0
1620713779849,152842,,1821,0
1620713780348,152863,,1693,0
1620713780348,152883,,1703,0
1620713780348,152903,,1726,0
1620713780348,152923,,1744,0
1620713780348,152943,,1617,0
1620713780348,152963,,1506,0
1620713780348,152983,,1485,0
1620713780348,153003,,1476,0
1620713780348,153023,,1488,0
1620713780348,153043,,1509,0
1620713780348,153063,,1520,0
1620713780348,153083,,1594,0
1620713780348,153103,,1607,0
1620713780348,153123,,1610,0
1620713780348,153143,,1605,0
1620713780348,153163,,1581,0
1620713780348,153183,,1621,0
1620713780348,153203,,1647,0
1620713780348,153223,,1702,0
1620713780348,153243,,1791,0
1620713780348,153263,,1826,0
1620713780348,153283,,1895,0
1620713780348,153303,,1875,1
1620713780348,153323,,1807,1
1620713780348,153343,,1697,1
1620713780849,153363,,1535,1
1620713780849,153383,,1535,1
1620713780849,153403,,1567,1
1620713780849,153423,,1581,1
1620713780849,153443,,1440,1
1620713780849,153463,,1328,1
1620713780849,153483,,1297,1
1620713780849,153503,,1258,1
1620713780849,153523,,1206,1
1620713780849,153543,,1168,1
1620713780849,153563,,1333,1
1620713780849,153583,,1633,1
1620713780849,153603,,1955,0
1620713780849,153623,,2081,0
1620713780849,153643,,2078,0
1620713780849,153663,,2034,0
1620713780849,153683,,2037,0
1620713780849,153703,,2128,0
1620713780849,153723,,2199,0
1620713780849,153743,,2277,0
1620713780849,153763,,2283,0
1620713780849,153783,,2221,0
1620713780849,153803,,2122,0
1620713780849,153823,,1943,0
1620713780849,153843,,1727,0
1620713781354,153863,,1390,0
1620713781354,153883,,1116,0
1620713781354,153903,,786,0
1620713781354,153923,,547,0
1620713781354,153943,,560,0
1620713781354,153963,,1083,0
1620713781354,153983,,1729,0
1620713781354,154003,,2384,0
1620713781354,154023,,2703,0
1620713781354,154043,,2715,0
1620713781354,154063,,2509,0
1620713781354,154083,,2160,0
1620713781354,154103,,1776,0
1620713781354,154123,,1377,0
1620713781354,154143,,950,0
1620713781354,154163,,639,0
1620713781354,154183,,418,0
1620713781354,154203,,327,0
1620713781354,154223,,266,0
1620713781354,154243,,210,0
1620713781354,154263,,140,0
1620713781354,154283,,23,0
1620713781354,154303,,0,0
1620713781354,154323,,0,0
1620713781354,154343,,0,0
1620713781850,154363,,0,0
1620713781850,154383,,168,0
1620713781850,154403,,485,0
1620713781850,154423,,825,0
1620713781850,154443,,1009,0
1620713781850,154463,,1131,0
1620713781850,154483,,1234,0
1620713781850,154503,,1330,0
1620713781850,154523,,1420,0
1620713781850,154543,,1462,0
1620713781850,154563,,1502,0
1620713781850,154583,,1535,0
1620713781850,154604,,1616,1
1620713781850,154624,,1710,1
1620713781850,154644,,1801,1
1620713781850,154664,,1938,1
1620713781850,154684,,2097,1
1620713781850,154704,,2313,1
1620713781850,154724,,2685,1
1620713781850,154744,,3135,1
1620713781850,154764,,3502,1
1620713781850,154784,,3391,1
1620713781850,154804,,2989,1
1620713781850,154824,,2595,1
1620713781850,154844,,2226,1
1620713782350,154864,,1863,1
1620713782350,154884,,1753,1
1620713782350,154904,,1739,1
1620713782350,154924,,1755,1
1620713782350,154944,,1660,1
1620713782350,154964,,1581,1
1620713782350,154984,,1535,1
1620713782350,155004,,1533,1
1620713782350,155024,,1629,1
1620713782350,155044,,1689,1
1620713782350,155064,,1729,1
1620713782350,155084,,1760,1
1620713782350,155104,,1777,1
1620713782350,155124,,1922,1
1620713782350,155144,,2034,1
1620713782350,155164,,2151,1
1620713782350,155184,,2240,1
1620713782350,155204,,2318,1
1620713782350,155224,,2461,1
1620713782350,155244,,2559,1
1620713782350,155264,,2640,1
1620713782350,155284,,2652,1
1620713782350,155304,,2559,1
1620713782350,155324,,2496,1
1620713782350,155344,,2384,1
1620713782848,155364,,2180,1
1620713782848,155384,,2111,1
1620713782848,155404,,2064,1
1620713782848,155424,,1990,1
1620713782848,155444,,1839,1
1620713782848,155464,,1648,1
1620713782848,155484,,1535,1
1620713782848,155504,,1495,1
1620713782848,155524,,1494,1
1620713782848,155544,,1527,1
1620713782848,155564,,1535,1
1620713782848,155584,,1579,1
1620713782848,155604,,1648,1
1620713782848,155624,,1778,1
1620713782848,155644,,1969,1
1620713782848,155664,,2182,1
1620713782848,155684,,2395,1
1620713782848,155704,,2606,1
1620713782848,155724,,2743,0
1620713782848,155744,,2836,0
1620713782848,155764,,2758,0
1620713782848,155784,,2559,0
1620713782848,155804,,2347,0
1620713782848,155824,,2066,0
1620713782848,155844,,1895,0
1620713783352,155865,,1829,0
1620713783352,155885,,1791,0
1620713783352,155905,,1761,0
1620713783352,155925,,1771,0
1620713783352,155945,,1773,0
1620713783352,155965,,1661,0
1620713783352,155985,,1561,0
1620713783352,156005,,1495,0
1620713783352,156025,,1462,0
1620713783352,156045,,1535,0
1620713783352,156065,,1629,0
1620713783352,156085,,1751,0
1620713783352,156105,,1933,0
1620713783352,156125,,2139,0
1620713783352,156145,,2473,0
1620713783352,156165,,2815,0
1620713783352,156185,,3172,0
1620713783352,156205,,3476,0
1620713783352,156225,,3639,0
1620713783352,156245,,3745,0
1620713783352,156265,,3776,0
1620713783352,156285,,3651,0
1620713783352,156305,,3403,0
1620713783352,156325,,3094,0
1620713783352,156345,,2818,0
1620713783853,156365,,2597,0
1620713783853,156385,,2559,0
1620713783853,156405,,2707,0
1620713783853,156425,,3027,0
1620713783853,156445,,3381,0
1620713783853,156465,,3747,0
1620713783853,156485,,3782,0
1620713783853,156505,,3499,0
1620713783853,156525,,3071,0
1620713783853,156545,,2640,0
1620713783853,156565,,2365,0
1620713783853,156585,,2230,0
1620713783853,156605,,2272,0
1620713783853,156625,,2368,0
1620713783853,156645,,2626,0
1620713783853,156665,,3570,0
1620713783853,156685,,3856,0
1620713783853,156705,,3858,0
1620713783853,156725,,3860,0
1620713783853,156745,,3861,0
1620713783853,156765,,3866,0
1620713783853,156785,,3867,0
1620713783853,156805,,3867,0
1620713783853,156825,,3869,0
1620713783853,156845,,3859,0
1620713784350,156865,,3856,0
1620713784350,156885,,3862,0
1620713784350,156905,,3867,0
1620713784350,156925,,3872,0
1620713784350,156945,,3861,0
1620713784350,156965,,3871,0
1620713784350,156985,,3870,0
1620713784350,157005,,3870,0
1620713784350,157025,,3867,0
1620713784350,157045,,3859,0
1620713784350,157065,,3859,0
1620713784350,157085,,3863,0
1620713784350,157105,,3861,0
1620713784350,157125,,3859,0
1620713784350,157145,,3863,0
1620713784350,157165,,3865,0
1620713784350,157185,,3866,0
1620713784350,157205,,3866,0
1620713784350,157225,,3859,0
1620713784350,157245,,3273,0
1620713784350,157265,,2547,0
1620713784350,157285,,1862,0
1620713784350,157305,,1281,0
1620713784350,157325,,850,0
1620713784350,157345,,558,0
1620713784884,157365,,276,0
1620713784884,157385,,271,0
1620713784884,157405,,442,0
1620713784884,157425,,752,0
1620713784884,157445,,947,0
1620713784884,157465,,1111,0
1620713784884,157485,,1332,0
1620713784884,157505,,1535,0
1620713784884,157525,,1757,0
1620713784884,157545,,1954,0
1620713784884,157565,,2117,0
1620713784884,157585,,2348,0
1620713784884,157605,,2516,0
1620713784884,157625,,2662,0
1620713784884,157645,,2743,0
1620713784884,157665,,2693,0
1620713784884,157685,,2619,0
1620713784884,157705,,2382,1
1620713784884,157725,,2084,1
1620713784884,157745,,1791,1
1620713784884,157765,,1456,1
1620713784884,157785,,1234,1
1620713784884,157805,,999,1
1620713784884,157825,,860,1
1620713784884,157845,,799,1
1620713785352,157866,,730,1
1620713785352,157886,,822,1
1620713785352,157906,,903,1
1620713785352,157926,,954,1
1620713785352,157946,,1013,1
1620713785352,157966,,913,1
1620713785352,157986,,703,1
1620713785352,158006,,608,1
1620713785352,158026,,687,1
1620713785352,158046,,881,1
1620713785352,158066,,1093,1
1620713785352,158086,,1293,1
1620713785352,158106,,1511,1
1620713785352,158126,,1773,1
1620713785352,158146,,2089,1
1620713785352,158166,,2367,1
1620713785352,158186,,2515,1
1620713785352,158206,,2614,1
1620713785352,158226,,2507,1
1620713785352,158246,,2290,1
1620713785352,158266,,1947,1
1620713785352,158286,,1535,1
1620713785352,158306,,1296,1
1620713785352,158326,,1121,1
1620713785352,158346,,1066,1
1620713785855,158366,,1034,1
1620713785855,158386,,1193,1
1620713785855,158406,,1435,1
1620713785855,158426,,1685,1
1620713785855,158446,,1831,1
1620713785855,158466,,1872,1
1620713785855,158486,,1890,1
1620713785855,158506,,1971,1
1620713785855,158526,,2094,1
1620713785855,158546,,2364,1
1620713785855,158566,,2762,1
1620713785855,158586,,3156,0
1620713785855,158606,,3517,0
1620713785855,158626,,3444,0
1620713785855,158646,,3071,0
1620713785855,158666,,2662,0
1620713785855,158686,,2297,0
1620713785855,158706,,1943,0
1620713785855,158726,,1702,0
1620713785855,158746,,1531,0
1620713785855,158766,,1468,0
1620713785855,158786,,1485,0
1620713785855,158806,,1573,0
1620713785855,158826,,1683,0
1620713785855,158846,,1817,0
1620713786354,158866,,1913,0
1620713786354,158886,,2189,0
1620713786354,158906,,2414,0
1620713786354,158926,,2559,0
1620713786354,158946,,2426,0
1620713786354,158966,,2192,0
1620713786354,158986,,2041,0
1620713786354,159006,,2067,0
1620713786354,159026,,2395,0
1620713786354,159046,,3056,0
1620713786354,159066,,3871,0
1620713786354,159086,,3873,0
1620713786354,159106,,3866,0
1620713786354,159126,,3873,0
1620713786354,159146,,3874,0
1620713786354,159166,,3876,0
1620713786354,159186,,3882,0
1620713786354,159206,,3878,0
1620713786354,159226,,3873,0
1620713786354,159246,,3873,0
1620713786354,159266,,3877,0
1620713786354,159286,,3875,0
1620713786354,159306,,3877,0
1620713786354,159326,,3878,0
1620713786354,159346,,3875,0
1620713786854,159366,,3863,0
1620713786854,159386,,3870,0
1620713786854,159406,,3869,0
1620713786854,159426,,3875,0
1620713786854,159446,,3876,0
1620713786854,159466,,3874,0
1620713786854,159486,,3875,0
1620713786854,159506,,3869,0
1620713786854,159526,,3873,0
1620713786854,159546,,2720,0
1620713786854,159566,,2022,0
1620713786854,159586,,1698,1
1620713786854,159606,,1520,1
1620713786854,159626,,1379,1
1620713786854,159646,,1255,1
1620713786854,159666,,1121,1
1620713786854,159686,,1005,1
1620713786854,159706,,946,1
1620713786854,159726,,1014,1
1620713786854,159746,,1041,1
1620713786854,159766,,1088,1
1620713786854,159786,,1199,1
1620713786854,159806,,1359,1
1620713786854,159826,,1535,1
1620713786854,159846,,1745,1
1620713787356,159866,,1791,1
1620713787356,159886,,1855,1
1620713787356,159906,,1834,1
1620713787356,159926,,1759,1
1620713787356,159946,,1584,1
1620713787356,159966,,1402,1
1620713787356,159986,,1282,1
1620713787356,160006,,1202,1
1620713787356,160026,,1102,1
1620713787356,160046,,1045,1
1620713787356,160066,,957,1
1620713787356,160086,,828,1
1620713787356,160106,,673,1
1620713787356,160126,,560,1
1620713787356,160146,,650,1
1620713787356,160166,,837,1
1620713787356,160186,,1091,1
1620713787356,160206,,1296,1
1620713787356,160226,,1459,1
1620713787356,160246,,1694,1
1620713787356,160266,,1786,1
1620713787356,160286,,1817,1
1620713787356,160306,,1751,1
1620713787356,160326,,1520,1
1620713787356,160346,,1289,1
1620713787851,160366,,1023,1
1620713787851,160386,,976,1
1620713787851,160406,,1051,1
1620713787851,160426,,1316,1
1620713787851,160446,,1557,1
1620713787851,160466,,1687,1
1620713787851,160486,,1719,1
1620713787851,160506,,1863,1
1620713787851,160526,,2193,1
1620713787851,160546,,2906,1
1620713787851,160566,,3870,0
1620713787851,160586,,3871,0
1620713787851,160606,,3875,0
1620713787851,160626,,3875,0
1620713787851,160646,,3873,0
1620713787851,160666,,3873,0
1620713787851,160686,,3873,0
1620713787851,160706,,3873,0
1620713787851,160726,,3871,0
1620713787851,160746,,3869,0
1620713787851,160766,,3481,0
1620713787851,160786,,2628,0
1620713787851,160806,,1967,0
1620713787851,160826,,1383,0
1620713787851,160846,,902,0
1620713788353,160866,,576,0
1620713788353,160886,,499,0
1620713788353,160906,,605,0
1620713788353,160926,,880,0
1620713788353,160946,,994,0
1620713788353,160966,,1217,0
1620713788353,160986,,1445,0
1620713788353,161006,,1687,0
1620713788353,161026,,1887,0
1620713788353,161046,,2006,0
1620713788353,161066,,2144,0
1620713788353,161086,,2103,0
1620713788353,161106,,1934,0
1620713788353,161126,,1700,0
1620713788353,161146,,1430,0
1620713788353,161166,,1254,0
1620713788353,161186,,1125,0
1620713788353,161206,,1089,0
1620713788353,161226,,1121,0
1620713788353,161246,,1158,0
1620713788353,161266,,1239,0
1620713788353,161286,,1266,0
1620713788353,161306,,1250,0
1620713788353,161326,,1241,0
1620713788353,161346,,1255,0
1620713788857,161366,,1275,0
1620713788857,161386,,1488,0
1620713788857,161406,,1760,0
1620713788857,161426,,2084,0
1620713788857,161446,,2288,0
1620713788857,161466,,2364,0
1620713788857,161486,,2372,0
1620713788857,161506,,2135,0
1620713788857,161526,,1577,0
1620713788857,161546,,848,0
1620713788857,161566,,111,1
1620713788857,161586,,0,1
1620713788857,161606,,0,1
1620713788857,161626,,0,1
1620713788857,161646,,0,1
1620713788857,161666,,0,1
1620713788857,161686,,0,1
1620713788857,161706,,0,1
1620713788857,161726,,0,1
1620713788857,161746,,0,1
1620713788857,161766,,0,1
1620713788857,161786,,173,1
1620713788857,161806,,704,1
1620713788857,161826,,1173,1
1620713788857,161846,,1520,1
1620713789351,161866,,1722,1
1620713789351,161886,,2019,1
1620713789351,161906,,2310,1
1620713789351,161926,,2586,1
1620713789351,161946,,2633,1
1620713789351,161966,,2476,1
1620713789351,161986,,2320,1
1620713789351,162006,,2114,1
1620713789351,162026,,1919,1
1620713789351,162046,,1774,1
1620713789351,162066,,1653,1
1620713789351,162086,,1700,1
1620713789351,162106,,1795,1
1620713789351,162126,,1891,1
1620713789351,162146,,1973,1
1620713789351,162166,,2035,1
1620713789351,162186,,2096,1
1620713789351,162206,,2096,1
1620713789351,162226,,2016,1
1620713789351,162246,,1903,1
1620713789351,162266,,1750,1
1620713789351,162286,,1648,1
1620713789351,162306,,1617,1
1620713789351,162326,,1621,1
1620713789351,162346,,1682,1
1620713789855,162366,,1767,1
1620713789855,162386,,1996,1
1620713789855,162406,,2226,1
1620713789855,162426,,2463,1
1620713789855,162446,,2545,0
1620713789855,162466,,2685,0
1620713789855,162486,,2934,0
1620713789855,162506,,3403,0
1620713789855,162526,,3529,0
1620713789855,162546,,3274,0
1620713789855,162566,,3017,0
1620713789855,162586,,2825,0
1620713789855,162606,,2768,0
1620713789855,162626,,2675,0
1620713789855,162646,,2507,0
1620713789855,162666,,2278,0
1620713789855,162686,,2037,0
1620713789855,162706,,1930,0
1620713789855,162726,,1843,0
1620713789855,162746,,1781,0
1620713789855,162766,,1689,0
1620713789855,162786,,1611,0
1620713789855,162806,,1689,0
1620713789855,162826,,1739,0
1620713789855,162846,,1775,0
1620713790353,162866,,1751,0
1620713790353,162886,,1985,0
1620713790353,162906,,2278,0
1620713790353,162926,,2541,0
1620713790353,162946,,2503,0
1620713790353,162966,,2139,0
1620713790353,162986,,1659,0
1620713790353,163006,,1279,0
1620713790353,163026,,1328,0
1620713790353,163046,,2030,0
1620713790353,163066,,3873,0
1620713790353,163086,,3875,0
1620713790353,163106,,3882,0
1620713790353,163126,,3883,0
1620713790353,163146,,3885,0
1620713790353,163166,,3887,0
1620713790353,163186,,3882,0
1620713790353,163206,,3882,0
1620713790353,163226,,3887,0
1620713790353,163246,,3885,0
1620713790353,163266,,3886,0
1620713790353,163286,,3888,0
1620713790353,163306,,3888,0
1620713790353,163326,,3888,0
1620713790353,163346,,3890,0
1620713790852,163366,,3877,0
1620713790852,163386,,3885,0
1620713790852,163406,,3885,0
1620713790852,163426,,3883,0
1620713790852,163446,,3881,1
1620713790852,163466,,3886,1
1620713790852,163486,,3876,1
1620713790852,163506,,3879,1
1620713790852,163526,,3882,1
1620713790852,163546,,3878,1
1620713790852,163566,,3882,1
1620713790852,163586,,3882,1
1620713790852,163606,,3881,0
1620713790852,163626,,3882,0
1620713790852,163646,,3877,0
1620713790852,163666,,2543,0
1620713790852,163686,,1435,0
1620713790852,163706,,547,0
1620713790852,163726,,130,0
1620713790852,163746,,80,0
1620713790852,163766,,304,0
1620713790852,163786,,603,0
1620713790852,163806,,848,0
1620713790852,163826,,1008,0
1620713790852,163846,,898,0
1620713808862,181377,,1510,0
1620713808862,181397,,1585,0
1620713808862,181417,,1663,0
1620713808862,181437,,1775,0
1620713808862,181457,,1734,0
1620713808862,181477,,1648,0
1620713808862,181497,,1573,0
1620713808862,181517,,1521,0
1620713808862,181537,,1519,0
1620713808862,181557,,1566,0
1620713808862,181577,,1643,0
1620713808862,181597,,1737,0
1620713808862,181617,,1819,0
1620713808862,181637,,1872,0
1620713808862,181657,,1935,0
1620713808862,181677,,1966,0
1620713808862,181697,,2002,0
1620713808862,181717,,2055,0
1620713808862,181737,,2015,0
1620713808862,181757,,2064,0
1620713808862,181777,,2099,0
1620713808862,181797,,2080,0
1620713808862,181817,,2007,0
1620713808862,181837,,1915,0
1620713808862,181857,,1854,0
1620713809367,181877,,1629,0
1620713809367,181897,,1535,0
1620713809367,181917,,1535,0
1620713809367,181937,,1600,0
1620713809367,181957,,1596,0
1620713809367,181977,,1535,0
1620713809367,181997,,1515,0
1620713809367,182017,,1499,0
1620713809367,182037,,1471,0
1620713809367,182057,,1504,0
1620713809367,182077,,1615,0
1620713809367,182097,,1705,1
1620713809367,182117,,1744,1
1620713809367,182137,,1759,1
1620713809367,182157,,1835,1
1620713809367,182177,,1808,1
1620713809367,182197,,1773,1
1620713809367,182217,,1754,1
1620713809367,182237,,1754,1
1620713809367,182257,,1819,1
1620713809367,182277,,1921,1
1620713809367,182297,,2031,1
1620713809367,182317,,2130,1
1620713809367,182337,,2206,0
1620713809367,182357,,2231,0
1620713809862,182377,,2145,0
1620713809862,182397,,2112,0
1620713809862,182417,,2078,0
1620713809862,182437,,2045,0
1620713809862,182457,,1814,0
1620713809862,182477,,1710,0
1620713809862,182497,,1664,0
1620713809862,182517,,1626,0
1620713809862,182537,,1615,0
1620713809862,182557,,1600,0
1620713809862,182577,,1588,0
1620713809862,182597,,1586,0
1620713809862,182617,,1586,0
1620713809862,182637,,1600,0
1620713809862,182657,,1644,0
1620713809862,182677,,1642,0
1620713809862,182697,,1571,0
1620713809862,182717,,1506,0
1620713809862,182737,,1502,0
1620713809862,182757,,1522,0
1620713809862,182777,,1680,0
1620713809862,182797,,1777,0
1620713809862,182817,,1854,0
1620713809862,182837,,1937,0
1620713809862,182857,,1998,0
1620713810371,182878,,2174,0
1620713810371,182898,,2416,0
1620713810371,182918,,2613,0
1620713810371,182938,,2703,0
1620713810371,182958,,2672,0
1620713810371,182978,,2525,0
1620713810371,182998,,2320,0
1620713810371,183018,,2101,0
1620713810371,183038,,1890,0
1620713810371,183058,,1700,0
1620713810371,183078,,1571,0
1620713810371,183098,,1478,0
1620713810371,183118,,1435,0
1620713810371,183138,,1429,0
1620713810371,183158,,1445,0
1620713810371,183178,,1474,0
1620713810371,183198,,1507,0
1620713810371,183218,,1525,0
1620713810371,183238,,1535,0
1620713810371,183258,,1569,0
1620713810371,183278,,1575,0
1620713810371,183298,,1584,0
1620713810371,183318,,1594,0
1620713810371,183338,,1616,1
1620713810371,183358,,1665,1
1620713810867,183378,,1731,1
1620713810867,183398,,1799,1
1620713810867,183418,,1873,1
1620713810867,183438,,1938,1
1620713810867,183458,,1874,1
1620713810867,183478,,1966,1
1620713810867,183498,,2112,1
1620713810867,183518,,2179,1
1620713810867,183538,,2233,1
1620713810867,183558,,2230,1
1620713810867,183578,,2193,1
1620713810867,183598,,2177,1
1620713810867,183618,,2061,1
1620713810867,183638,,1907,1
1620713810867,183658,,1790,1
1620713810867,183678,,1648,1
1620713810867,183698,,1648,1
1620713810867,183718,,1602,1
1620713810867,183738,,1581,1
1620713810867,183758,,1555,1
1620713810867,183778,,1518,1
1620713810867,183798,,1579,1
1620713810867,183818,,1591,1
1620713810867,183838,,1594,1
1620713810867,183858,,1593,1
1620713811364,183878,,1527,1
1620713811364,183898,,1595,1
1620713811364,183918,,1671,1
1620713811364,183938,,1785,1
1620713811364,183958,,1777,1
1620713811364,183978,,1743,1
1620713811364,183998,,1743,1
1620713811364,184018,,1755,1
1620713811364,184038,,1795,1
1620713811364,184058,,1877,1
1620713811364,184078,,2000,1
1620713811364,184098,,2155,1
1620713811364,184118,,2298,1
1620713811364,184138,,2343,1
1620713811364,184158,,2326,1
1620713811364,184178,,2236,1
1620713811364,184198,,2106,1
1620713811364,184218,,1989,1
1620713811364,184238,,1835,1
1620713811364,184258,,1710,1
1620713811364,184278,,1591,1
1620713811364,184298,,1515,1
1620713811364,184318,,1510,1
1620713811364,184338,,1499,0
1620713811364,184358,,1498,0
1620713811867,184378,,1450,0
1620713811867,184398,,1521,0
1620713811867,184418,,1614,0
1620713811867,184438,,1731,0
1620713811867,184458,,1683,0
1620713811867,184478,,1597,0
1620713811867,184498,,1522,0
1620713811867,184518,,1564,0
1620713811867,184538,,1615,0
1620713811867,184558,,1670,0
1620713811867,184578,,1746,0
1620713811867,184598,,1810,0
1620713811867,184618,,2013,0
1620713811867,184638,,2206,0
1620713811867,184658,,2397,0
1620713811867,184678,,2559,0
1620713811867,184698,,2624,0
1620713811867,184718,,2643,0
1620713811867,184738,,2522,0
1620713811867,184758,,2304,0
1620713811867,184778,,2064,0
1620713811867,184798,,1808,0
1620713811867,184818,,1653,0
1620713811867,184838,,1525,0
1620713811867,184858,,1443,0
1620713812374,184878,,1328,0
1620713812374,184898,,1387,0
1620713812374,184918,,1473,0
1620713812374,184938,,1565,0
1620713812374,184958,,1598,0
1620713812374,184978,,1606,0
1620713812374,184998,,1604,0
1620713812374,185018,,1596,0
1620713812374,185038,,1575,0
1620713812374,185058,,1535,0
1620713812374,185078,,1535,0
1620713812374,185098,,1575,0
1620713812374,185118,,1680,0
1620713812374,185138,,1719,0
1620713812374,185158,,1714,0
1620713812374,185178,,1767,0
1620713812374,185198,,1893,0
1620713812374,185218,,2077,0
1620713812374,185238,,2335,0
1620713812374,185258,,2515,0
1620713812374,185278,,2623,0
1620713812374,185298,,2606,0
1620713812374,185318,,2458,0
1620713812374,185338,,2315,0
1620713812374,185358,,2094,0
1620713812866,185379,,1808,0
1620713812866,185399,,1681,0
1620713812866,185419,,1619,0
1620713812866,185439,,1585,0
1620713812866,185459,,1557,0
1620713812866,185479,,1535,0
1620713812866,185499,,1526,0
1620713812866,185519,,1535,0
1620713812866,185539,,1566,0
1620713812866,185559,,1483,0
1620713812866,185579,,1418,0
1620713812866,185599,,1383,0
1620713812866,185619,,1351,0
1620713812866,185639,,1414,0
1620713812866,185659,,1472,1
1620713812866,185679,,1523,1
1620713812866,185699,,1598,1
1620713812866,185719,,1646,1
1620713812866,185739,,1730,1
1620713812866,185759,,1824,1
1620713812866,185779,,1925,1
1620713812866,185799,,2063,1
1620713812866,185819,,2199,1
1620713812866,185839,,2361,1
1620713812866,185859,,2491,1
1620713813367,185879,,2448,1
1620713813367,185899,,2419,1
1620713813367,185919,,2355,1
1620713813367,185939,,2263,1
1620713813367,185959,,2032,1
1620713813367,185979,,1785,1
1620713813367,185999,,1584,1
1620713813367,186019,,1449,1
1620713813367,186039,,1323,1
1620713813367,186059,,1360,1
1620713813367,186079,,1466,1
1620713813367,186099,,1557,1
1620713813367,186119,,1613,1
1620713813367,186139,,1680,1
1620713813367,186159,,1675,1
1620713813367,186179,,1584,1
1620713813367,186199,,1499,1
1620713813367,186219,,1445,1
1620713813367,186239,,1402,1
1620713813367,186259,,1456,1
1620713813367,186279,,1506,1
1620713813367,186299,,1578,1
1620713813367,186319,,1648,1
1620713813367,186339,,1679,1
1620713813367,186359,,1801,1
1620713813865,186379,,1818,1
1620713813865,186399,,1958,1
1620713813865,186419,,2123,1
1620713813865,186439,,2294,1
1620713813865,186459,,2359,0
1620713813865,186479,,2295,0
1620713813865,186499,,2189,0
1620713813865,186519,,2059,0
1620713813865,186539,,1890,0
1620713813865,186559,,1806,0
1620713813865,186579,,1711,0
1620713813865,186599,,1622,0
1620713813865,186619,,1566,0
1620713813865,186639,,1518,0
1620713813865,186659,,1455,0
1620713813865,186679,,1531,0
1620713813865,186699,,1611,0
1620713813865,186719,,1648,0
1620713813865,186739,,1659,0
1620713813865,186759,,1712,0
1620713813865,186779,,1647,0
1620713813865,186799,,1535,0
1620713813865,186819,,1471,0
1620713813865,186839,,1442,0
1620713813865,186860,,1399,0
1620713814367,186881,,1534,0
1620713814367,186901,,1680,0
1620713814367,186921,,1781,0
1620713814367,186941,,1868,0
1620713814367,186961,,2000,0
1620713814367,186981,,2060,0
1620713814367,187001,,2078,0
1620713814367,187021,,2127,0
1620713814367,187041,,2192,0
1620713814367,187061,,2169,0
1620713814367,187081,,2203,0
1620713814367,187101,,2211,0
1620713814367,187121,,2157,0
1620713814367,187141,,2045,0
1620713814367,187161,,1949,0
1620713814367,187181,,1818,0
1620713814367,187201,,1621,0
1620713814367,187221,,1453,0
1620713814367,187241,,1355,0
1620713814367,187261,,1297,0
1620713814367,187281,,1375,0
1620713814367,187301,,1424,0
1620713814367,187321,,1466,0
1620713814367,187341,,1508,0
1620713814367,187361,,1493,0
1620713814867,187381,,1495,0
1620713814867,187401,,1578,0
1620713814867,187421,,1656,0
1620713814867,187441,,1755,0
1620713814867,187461,,1690,1
1620713814867,187481,,1682,1
1620713814867,187501,,1671,1
1620713814867,187521,,1671,1
1620713814867,187541,,1706,1
1620713814867,187561,,1780,1
1620713814867,187581,,1949,1
1620713814867,187601,,2144,1
1620713814867,187621,,2341,0
1620713814867,187641,,2483,0
1620713814867,187661,,2550,0
1620713814867,187681,,2512,0
1620713814867,187701,,2405,0
1620713814867,187721,,2214,0
1620713814867,187741,,2000,0
1620713814867,187761,,1802,0
1620713814867,187781,,1632,0
1620713814867,187801,,1526,0
1620713814867,187821,,1451,0
1620713814867,187841,,1408,0
1620713814867,187861,,1394,0
1620713815374,187881,,1351,0
1620713815374,187901,,1424,0
1620713815374,187921,,1525,0
1620713815374,187941,,1671,0
1620713815374,187961,,1662,0
1620713815374,187981,,1526,0
1620713815374,188001,,1515,0
1620713815374,188021,,1563,0
1620713815374,188041,,1601,0
1620713815374,188061,,1639,0
1620713815374,188081,,1713,0
1620713815374,188101,,1776,0
1620713815374,188121,,1733,0
1620713815374,188141,,1687,0
1620713815374,188161,,1687,0
1620713815374,188181,,1712,0
1620713815374,188201,,1872,0
1620713815374,188221,,2017,0
1620713815374,188241,,2154,0
1620713815374,188261,,2247,0
1620713815374,188281,,2255,0
1620713815374,188301,,2263,0
1620713815374,188321,,2179,0
1620713815374,188341,,2060,0
1620713815374,188361,,1904,0
1620713815880,188381,,1738,0
1620713815880,188401,,1675,0
1620713815880,188421,,1667,0
1620713815880,188441,,1734,0
1620713815880,188461,,1648,0
1620713815880,188481,,1565,0
1620713815880,188501,,1500,0
1620713815880,188521,,1484,0
1620713815880,188541,,1472,0
1620713815880,188561,,1476,0
1620713815880,188581,,1493,0
1620713815880,188601,,1520,0
1620713815880,188621,,1575,0
1620713815880,188641,,1588,0
1620713815880,188661,,1600,0
1620713815880,188681,,1622,0
1620713815880,188701,,1653,0
1620713815880,188721,,1715,0
1620713815880,188741,,1744,0
1620713815880,188761,,1759,0
1620713815880,188781,,1797,0
1620713815880,188801,,1846,0
1620713815880,188821,,1974,0
1620713815880,188841,,2082,0
1620713815880,188861,,2140,0
1620713816380,188881,,2099,0
1620713816380,188901,,2131,0
1620713816380,188921,,2159,0
1620713816380,188941,,2107,0
1620713816380,188961,,2000,0
1620713816380,188981,,1890,0
1620713816380,189001,,1791,0
1620713816380,189021,,1712,0
1620713816380,189041,,1559,0
1620713816380,189061,,1439,0
1620713816380,189081,,1384,0
1620713816380,189101,,1354,0
1620713816380,189121,,1431,0
1620713816380,189141,,1482,0
1620713816380,189161,,1513,0
1620713816380,189181,,1535,0
1620713816380,189201,,1535,0
1620713816380,189221,,1596,0
1620713816380,189241,,1635,0
1620713816380,189261,,1673,0
1620713816380,189281,,1711,0
1620713816380,189301,,1735,1
1620713816380,189321,,1763,1
1620713816380,189341,,1810,1
1620713816380,189361,,1856,1
1620713816868,189381,,1872,1
1620713816868,189401,,2036,1
1620713816868,189421,,2217,0
1620713816868,189441,,2411,0
1620713816868,189461,,2389,0
1620713816868,189481,,2282,0
1620713816868,189501,,2133,0
1620713816868,189521,,1922,0
1620713816868,189541,,1846,0
1620713816868,189561,,1817,0
1620713816868,189581,,1771,0
1620713816868,189601,,1717,0
1620713816868,189621,,1663,0
1620713816868,189641,,1614,0
1620713816868,189661,,1583,0
1620713816868,189681,,1565,0
1620713816868,189701,,1535,0
1620713816868,189721,,1535,0
1620713816868,189741,,1533,0
1620713816868,189761,,1535,0
1620713816868,189781,,1535,0
1620713816868,189801,,1557,0
1620713816868,189821,,1598,0
1620713816868,189841,,1661,0
1620713816868,189861,,1639,0
1620713817370,189881,,1535,0
1620713817370,189901,,1616,0
1620713817370,189921,,1735,0
1620713817370,189941,,1941,0
1620713817370,189961,,2018,0
1620713817370,189981,,2118,0
1620713817370,190001,,2231,0
1620713817370,190021,,2311,0
1620713817370,190041,,2407,0
1620713817370,190061,,2412,0
1620713817370,190081,,2321,0
1620713817370,190101,,2177,0
1620713817370,190121,,1992,0
1620713817370,190141,,1847,0
1620713817370,190161,,1719,0
1620713817370,190181,,1600,0
1620713817370,190201,,1520,0
1620713817370,190221,,1483,0
1620713817370,190241,,1405,0
1620713817370,190261,,1472,0
1620713817370,190281,,1562,0
1620713817370,190301,,1622,0
1620713817370,190321,,1659,0
1620713817370,190341,,1658,0
1620713817370,190361,,1633,0
1620713817869,190382,,1606,0
1620713817869,190402,,1607,0
1620713817869,190422,,1607,0
1620713817869,190442,,1687,0
1620713817869,190462,,1687,0
1620713817869,190482,,1633,0
1620713817869,190502,,1611,0
1620713817869,190522,,1649,0
1620713817869,190542,,1727,0
1620713817869,190562,,1891,0
1620713817869,190582,,2039,0
1620713817869,190602,,2178,0
1620713817869,190622,,2256,0
1620713817869,190642,,2242,0
1620713817869,190662,,2243,0
1620713817869,190682,,2155,0
1620713817869,190702,,2016,0
1620713817869,190722,,1885,0
1620713817869,190742,,1713,0
1620713817869,190762,,1626,0
1620713817869,190782,,1635,0
1620713817869,190802,,1649,0
1620713817869,190822,,1659,0
1620713817869,190842,,1661,0
1620713817869,190862,,1698,0
1620713818374,190882,,1535,0
1620713818374,190902,,1501,0
1620713818374,190922,,1527,0
1620713818374,190942,,1600,0
1620713818374,190962,,1524,0
1620713818374,190982,,1558,0
1620713818374,191002,,1616,0
1620713818374,191022,,1684,0
1620713818374,191042,,1743,0
1620713818374,191062,,1841,0
1620713818374,191082,,1799,0
1620713818374,191102,,1730,0
1620713818374,191122,,1721,0
1620713818374,191142,,1776,0
1620713818374,191162,,1807,0
1620713818374,191182,,1998,0
1620713818374,191202,,2166,0
1620713818374,191222,,2256,0
1620713818374,191242,,2259,0
1620713818374,191262,,2237,0
1620713818374,191282,,2107,0
1620713818374,191302,,1895,0
1620713818374,191322,,1713,0
1620713818374,191342,,1587,0
1620713818374,191362,,1491,0
1620713818881,191382,,1425,0
1620713818881,191402,,1488,0
1620713818881,191422,,1581,0
1620713818881,191442,,1712,0
1620713818881,191462,,1652,0
1620713818881,191482,,1616,0
1620713818881,191502,,1565,0
1620713818881,191522,,1525,0
1620713818881,191542,,1520,0
1620713818881,191562,,1511,0
1620713818881,191582,,1618,0
1620713818881,191602,,1693,0
1620713818881,191622,,1744,0
1620713818881,191642,,1790,0
1620713818881,191662,,1793,0
1620713818881,191682,,1914,0
1620713818881,191702,,2010,0
1620713818881,191722,,2115,0
1620713818881,191742,,2233,0
1620713818881,191762,,2275,0
1620713818881,191782,,2275,0
1620713818881,191802,,2307,0
1620713818881,191822,,2313,0
1620713818881,191842,,2224,0
1620713818881,191862,,2000,0
1620713819374,191883,,1743,0
1620713819374,191903,,1658,0
1620713819374,191923,,1631,0
1620713819374,191943,,1613,0
1620713819374,191963,,1619,0
1620713819374,191983,,1630,0
1620713819374,192003,,1648,0
1620713819374,192023,,1559,0
1620713819374,192043,,1483,0
1620713819374,192063,,1434,0
1620713819374,192083,,1363,0
1620713819374,192103,,1459,0
1620713819374,192123,,1584,0
1620713819374,192143,,1678,0
1620713819374,192163,,1759,0
1620713819374,192183,,1870,0
1620713819374,192203,,1867,0
1620713819374,192223,,1829,0
1620713819374,192243,,1829,0
1620713819374,192263,,1909,0
1620713819374,192283,,2058,0
1620713819374,192303,,2276,0
1620713819374,192323,,2445,0
1620713819374,192343,,2519,0
1620713819374,192363,,2512,0
1620713816380,189361,,1856,1
1620713816868,189381,,1872,1
1620713816868,189401,,2036,1
1620713816868,189421,,2217,0
1620713816868,189441,,2411,0
1620713816868,189461,,2389,0
1620713816868,189481,,2282,0
1620713816868,189501,,2133,0
1620713816868,189521,,1922,0
1620713816868,189541,,1846,0
1620713816868,189561,,1817,0
1620713816868,189581,,1771,0
1620713816868,189601,,1717,0
1620713816868,189621,,1663,0
1620713816868,189641,,1614,0
1620713816868,189661,,1583,0
1620713816868,189681,,1565,0
1620713816868,189701,,1535,0
1620713816868,189721,,1535,0
1620713816868,189741,,1533,0
1620713816868,189761,,1535,0
1620713816868,189781,,1535,0
1620713816868,189801,,1557,0
1620713816868,189821,,1598,0
1620713816868,189841,,1661,0
1620713816868,189861,,1639,0
1620713817370,189881,,1535,0
1620713817370,189901,,1616,0
1620713817370,189921,,1735,0
1620713817370,189941,,1941,0
1620713817370,189961,,2018,0
1620713817370,189981,,2118,0
1620713817370,190001,,2231,0
1620713817370,190021,,2311,0
1620713817370,190041,,2407,0
1620713817370,190061,,2412,0
1620713817370,190081,,2321,0
1620713817370,190101,,2177,0
1620713817370,190121,,1992,0
1620713817370,190141,,1847,0
1620713817370,190161,,1719,0
1620713817370,190181,,1600,0
1620713817370,190201,,1520,0
1620713817370,190221,,1483,0
1620713817370,190241,,1405,0
1620713817370,190261,,1472,0
1620713817370,190281,,1562,0
1620713817370,190301,,1622,0
1620713817370,190321,,1659,0
1620713817370,190341,,1658,0
1620713817370,190361,,1633,0
1620713817869,190382,,1606,0
1620713817869,190402,,1607,0
1620713817869,190422,,1607,0
1620713817869,190442,,1687,0
1620713817869,190462,,1687,0
1620713817869,190482,,1633,0
1620713817869,190502,,1611,0
1620713817869,190522,,1649,0
1620713817869,190542,,1727,0
1620713817869,190562,,1891,0
1620713817869,190582,,2039,0
1620713817869,190602,,2178,0
1620713817869,190622,,2256,0
1620713817869,190642,,2242,0
1620713817869,190662,,2243,0
1620713817869,190682,,2155,0
1620713817869,190702,,2016,0
1620713817869,190722,,1885,0
1620713817869,190742,,1713,0
1620713817869,190762,,1626,0
1620713817869,190782,,1635,0
1620713817869,190802,,1649,0
1620713817869,190822,,1659,0
1620713817869,190842,,1661,0
1620713817869,190862,,1698,0
1620713818374,190882,,1535,0
1620713818374,190902,,1501,0
1620713818374,190922,,1527,0
1620713818374,190942,,1600,0
1620713818374,190962,,1524,0
1620713818374,190982,,1558,0
1620713818374,191002,,1616,0
1620713818374,191022,,1684,0
1620713818374,191042,,1743,0
1620713818374,191062,,1841,0
1620713818374,191082,,1799,0
1620713818374,191102,,1730,0
1620713818374,191122,,1721,0
1620713818374,191142,,1776,0
1620713818374,191162,,1807,0
1620713818374,191182,,1998,0
1620713818374,191202,,2166,0
1620713818374,191222,,2256,0
1620713818374,191242,,2259,0
1620713818374,191262,,2237,0
1620713818374,191282,,2107,0
1620713818374,191302,,1895,0
1620713818374,191322,,1713,0
1620713818374,191342,,1587,0
1620713818374,191362,,1491,0
1620713818881,191382,,1425,0
1620713818881,191402,,1488,0
1620713818881,191422,,1581,0
1620713818881,191442,,1712,0
1620713818881,191462,,1652,0
1620713818881,191482,,1616,0
1620713818881,191502,,1565,0
1620713818881,191522,,1525,0
1620713818881,191542,,1520,0
1620713818881,191562,,1511,0
1620713818881,191582,,1618,0
1620713818881,191602,,1693,0
1620713818881,191622,,1744,0
1620713818881,191642,,1790,0
1620713818881,191662,,1793,0
1620713818881,191682,,1914,0
1620713818881,191702,,2010,0
1620713818881,191722,,2115,0
1620713818881,191742,,2233,0
1620713818881,191762,,2275,0
1620713818881,191782,,2275,0
1620713818881,191802,,2307,0
1620713818881,191822,,2313,0
1620713818881,191842,,2224,0
1620713818881,191862,,2000,0
1620713819374,191883,,1743,0
1620713819374,191903,,1658,0
1620713819374,191923,,1631,0
1620713819374,191943,,1613,0
1620713819374,191963,,1619,0
1620713819374,191983,,1630,0
1620713819374,192003,,1648,0
1620713819374,192023,,1559,0
1620713819374,192043,,1483,0
1620713819374,192063,,1434,0
1620713819374,192083,,1363,0
1620713819374,192103,,1459,0
1620713819374,192123,,1584,0
1620713819374,192143,,1678,0
1620713819374,192163,,1759,0
1620713819374,192183,,1870,0
1620713819374,192203,,1867,0
1620713819374,192223,,1829,0
1620713819374,192243,,1829,0
1620713819374,192263,,1909,0
1620713819374,192283,,2058,0
1620713819374,192303,,2276,0
1620713819374,192323,,2445,0
1620713819374,192343,,2519,0
1620713819374,192363,,2512,0
1620713819870,192383,,2352,0
1620713819870,192403,,2265,0
1620713819870,192423,,2167,0
1620713819870,192443,,2023,0
1620713819870,192463,,1870,0
1620713819870,192483,,1749,0
1620713819870,192503,,1679,0
1620713819870,192523,,1524,0
1620713819870,192543,,1424,0
1620713819870,192563,,1359,0
1620713819870,192583,,1328,0
1620713819870,192603,,1401,0
1620713819870,192623,,1461,0
1620713819870,192643,,1497,0
1620713819870,192663,,1535,0
1620713819870,192683,,1526,0
1620713819870,192703,,1531,0
1620713819870,192723,,1644,0
1620713819870,192743,,1739,1
1620713819870,192763,,1829,1
1620713819870,192783,,1874,1
1620713819870,192803,,1958,1
1620713819870,192823,,1926,1
1620713819870,192843,,1911,1
1620713819870,192863,,1978,1
1620713820378,192883,,2023,1
1620713820378,192903,,2210,1
1620713820378,192923,,2363,1
1620713820378,192943,,2414,1
1620713820378,192963,,2381,1
1620713820378,192983,,2256,1
1620713820378,193003,,2151,1
1620713820378,193023,,1925,1
1620713820378,193043,,1734,1
1620713820378,193063,,1535,1
1620713820378,193083,,1455,1
1620713820378,193103,,1409,1
1620713820378,193123,,1446,1
1620713820378,193143,,1462,1
1620713820378,193163,,1494,1
1620713820378,193183,,1526,1
1620713820378,193203,,1535,1
1620713820378,193223,,1600,1
1620713820378,193243,,1614,1
1620713820378,193263,,1611,1
1620713820378,193283,,1607,1
1620713820378,193303,,1584,1
1620713820378,193323,,1651,1
1620713820378,193343,,1686,1
1620713820378,193363,,1719,1
1620713820868,193383,,1674,1
1620713820868,193403,,1778,1
1620713820868,193423,,1921,1
1620713820868,193443,,2108,1
1620713820868,193463,,2167,1
1620713820868,193483,,2204,1
1620713820868,193503,,2198,1
1620713820868,193523,,2230,1
1620713820868,193543,,2203,1
1620713820868,193563,,2109,1
1620713820868,193583,,1991,1
1620713820868,193603,,1867,1
1620713820868,193623,,1712,1
1620713820868,193643,,1702,1
1620713820868,193663,,1702,1
1620713820868,193683,,1696,1
1620713820868,193703,,1681,1
1620713820868,193723,,1717,1
1620713820868,193743,,1655,1
1620713820868,193763,,1535,1
1620713820868,193783,,1460,1
1620713820868,193803,,1425,1
1620713820868,193823,,1434,1
1620713820868,193843,,1475,1
1620713820868,193863,,1513,1
1620713821377,193884,,1491,1
1620713821377,193904,,1627,1
1620713821377,193924,,1757,1
1620713821377,193944,,1906,1
1620713821377,193964,,1890,1
1620713821377,193984,,1871,1
1620713821377,194004,,1905,1
1620713821377,194024,,2001,1
1620713821377,194044,,2182,1
1620713821377,194064,,2321,1
1620713821377,194084,,2390,1
1620713821377,194104,,2369,1
1620713821377,194124,,2267,1
1620713821377,194144,,2177,1
1620713821377,194164,,2013,1
1620713821377,194184,,1847,1
1620713821377,194204,,1706,1
1620713821377,194224,,1535,1
1620713821377,194244,,1488,1
1620713821377,194264,,1533,1
1620713821377,194284,,1595,1
1620713821377,194304,,1631,1
1620713821377,194324,,1650,1
1620713821377,194344,,1680,1
1620713821377,194364,,1598,1
1620713821871,194384,,1435,1
1620713821871,194404,,1447,1
1620713821871,194424,,1503,1
1620713821871,194444,,1628,1
1620713821871,194464,,1623,1
1620713821871,194484,,1598,1
1620713821871,194504,,1599,1
1620713821871,194524,,1626,1
1620713821871,194544,,1717,1
1620713821871,194564,,1857,1
1620713821871,194584,,1995,1
1620713821871,194604,,2179,1
1620713821871,194624,,2370,1
1620713821871,194645,,2525,1
1620713821871,194665,,2629,1
1620713821871,194685,,2601,1
1620713821871,194705,,2471,1
1620713821871,194725,,2283,1
1620713821871,194745,,2078,1
1620713821871,194765,,1893,1
1620713821871,194785,,1725,1
1620713821871,194805,,1595,1
1620713821871,194825,,1491,1
1620713821871,194845,,1433,1
1620713821871,194865,,1451,1
1620713822373,194885,,1405,1
1620713822373,194905,,1475,1
1620713822373,194925,,1583,1
1620713822373,194945,,1670,1
1620713822373,194965,,1663,1
1620713822373,194985,,1584,1
1620713822373,195005,,1511,1
1620713822373,195025,,1471,1
1620713822373,195045,,1418,1
1620713822373,195065,,1483,1
1620713822373,195085,,1625,1
1620713822373,195105,,1750,1
1620713822373,195125,,1840,1
1620713822373,195145,,1906,1
1620713822373,195165,,2027,1
1620713822373,195185,,2047,1
1620713822373,195205,,2111,1
1620713822373,195225,,2195,1
1620713822373,195245,,2239,1
1620713822373,195265,,2269,1
1620713822373,195285,,2316,1
1620713822373,195305,,2291,1
1620713822373,195325,,2192,1
1620713822373,195345,,2067,1
1620713822373,195365,,1903,1
1620713822873,195386,,1751,1
1620713822873,195406,,1648,1
1620713822873,195426,,1568,1
1620713822873,195446,,1520,1
1620713822873,195467,,1575,1
1620713822873,195487,,1502,1
1620713822873,195507,,1438,1
1620713822873,195527,,1405,1
1620713822873,195547,,1405,1
1620713822873,195567,,1443,1
1620713822873,195587,,1504,1
1620713822873,195607,,1535,1
1620713822873,195627,,1564,1
1620713822873,195647,,1584,1
1620713822873,195667,,1617,1
1620713822873,195687,,1689,1
1620713822873,195707,,1727,1
1620713822873,195727,,1755,1
1620713822873,195747,,1776,1
1620713822873,195767,,1763,1
1620713822873,195787,,1895,1
1620713822873,195807,,2064,1
1620713822873,195827,,2199,1
1620713822873,195847,,2297,1
1620713822873,195867,,2373,1
1620713823374,195887,,2261,1
1620713823374,195907,,2145,1
1620713823374,195927,,2054,1
1620713823374,195947,,1998,1
1620713823374,195967,,1781,1
1620713823374,195987,,1680,1
1620713823374,196007,,1573,1
1620713823374,196027,,1497,1
1620713823374,196047,,1467,1
1620713823374,196067,,1437,1
1620713823374,196087,,1508,1
1620713823374,196107,,1535,1
1620713823374,196127,,1535,1
1620713823374,196147,,1565,1
1620713823374,196167,,1535,1
1620713823374,196187,,1590,1
1620713823374,196207,,1606,1
1620713823374,196227,,1627,1
1620713823374,196247,,1653,1
1620713823374,196267,,1665,1
1620713823374,196287,,1744,1
1620713823374,196307,,1799,1
1620713823374,196327,,1859,1
1620713823374,196347,,1937,1
1620713823374,196367,,2033,1
1620713823876,196388,,2112,1
1620713823876,196408,,2275,1
1620713823876,196428,,2385,1
1620713823876,196448,,2446,1
1620713823876,196468,,2307,1
1620713823876,196488,,2087,1
1620713823876,196508,,1903,1
1620713823876,196528,,1743,1
1620713823876,196548,,1615,1
1620713823876,196568,,1529,1
1620713823876,196588,,1488,1
1620713823876,196608,,1506,1
1620713823876,196628,,1516,1
1620713823876,196648,,1517,1
1620713823876,196668,,1520,1
1620713823876,196688,,1521,1
1620713823876,196708,,1571,1
1620713823876,196728,,1579,1
1620713823876,196748,,1581,1
1620713823876,196768,,1591,1
1620713823876,196788,,1601,1
1620713823876,196808,,1691,1
1620713823876,196828,,1730,1
1620713823876,196848,,1766,1
1620713823876,196868,,1830,1
1620713824381,196889,,1893,1
1620713824381,196909,,2137,1
1620713824381,196929,,2366,1
1620713824381,196949,,2640,1
1620713824381,196969,,2694,1
1620713824381,196989,,2609,1
1620713824381,197009,,2559,1
1620713824381,197029,,2401,1
1620713824381,197049,,2171,1
1620713824381,197069,,1891,1
1620713824381,197089,,1622,1
1620713824381,197109,,1472,1
1620713824381,197129,,1373,1
1620713824381,197149,,1333,1
1620713824381,197169,,1342,1
1620713824381,197189,,1347,1
1620713824381,197209,,1423,1
1620713824381,197229,,1469,1
1620713824381,197249,,1487,1
1620713824381,197269,,1491,1
1620713824381,197289,,1492,1
1620713824381,197309,,1520,1
1620713824381,197329,,1557,1
1620713824381,197349,,1583,1
1620713824381,197369,,1616,1
1620713824878,197389,,1599,1
1620713824878,197409,,1726,1
1620713824878,197429,,1886,1
1620713824878,197449,,2103,1
1620713824878,197469,,2205,1
1620713824878,197489,,2293,1
1620713824878,197509,,2393,1
1620713824878,197529,,2502,1
1620713824878,197549,,2513,1
1620713824878,197569,,2445,1
1620713824878,197589,,2295,1
1620713824878,197609,,2064,1
1620713824878,197629,,1913,1
1620713824878,197649,,1826,1
1620713824878,197669,,1735,1
1620713824878,197689,,1651,1
1620713824878,197709,,1595,1
1620713824878,197729,,1535,1
1620713824878,197749,,1510,1
1620713824878,197769,,1497,1
1620713824878,197789,,1499,1
1620713824878,197809,,1508,1
1620713824878,197829,,1519,1
1620713824878,197849,,1525,1
1620713824878,197869,,1530,1
1620713825377,197890,,1521,1
1620713825377,197910,,1571,1
1620713825377,197930,,1614,1
1620713825377,197950,,1705,1
1620713825377,197970,,1673,1
1620713825377,197990,,1648,1
1620713825377,198010,,1623,1
1620713825377,198030,,1806,1
1620713825377,198050,,1965,1
1620713825377,198070,,2115,1
1620713825377,198090,,2241,1
1620713825377,198110,,2288,1
1620713825377,198130,,2335,1
1620713825377,198150,,2283,1
1620713825377,198170,,2156,1
1620713825377,198190,,2001,1
1620713825377,198210,,1838,1
1620713825377,198230,,1739,1
1620713825377,198250,,1650,1
1620713825377,198270,,1583,1
1620713825377,198290,,1531,1
1620713825377,198310,,1519,1
1620713825377,198330,,1461,1
1620713825377,198350,,1535,1
1620713825377,198370,,1619,1
1620713825877,198391,,1670,1
1620713825877,198411,,1689,1
1620713825877,198431,,1681,1
1620713825877,198451,,1707,1
1620713825877,198471,,1628,1
1620713825877,198491,,1570,1
1620713825877,198511,,1567,1
1620713825877,198531,,1597,1
1620713825877,198551,,1712,1
1620713825877,198571,,1831,1
1620713825877,198591,,1958,1
1620713825877,198611,,2096,1
1620713825877,198631,,2179,1
1620713825877,198651,,2263,1
1620713825877,198671,,2256,0
1620713825877,198691,,2175,0
1620713825877,198711,,2063,0
1620713825877,198731,,1903,0
1620713825877,198751,,1834,0
1620713825877,198771,,1728,0
1620713825877,198791,,1639,0
1620713825877,198811,,1574,0
1620713825877,198831,,1502,0
1620713825877,198851,,1527,0
1620713825877,198871,,1524,0
1620713826375,198891,,1461,0
1620713826375,198911,,1535,0
1620713826375,198931,,1615,0
1620713826375,198951,,1664,0
1620713826375,198971,,1696,0
1620713826375,198991,,1717,0
1620713826375,199011,,1743,0
1620713826375,199031,,1759,0
1620713826375,199051,,1840,0
1620713826375,199071,,1810,0
1620713826375,199091,,1797,0
1620713826375,199111,,1853,0
1620713826375,199131,,1949,0
1620713826375,199151,,2112,0
1620713826375,199171,,2263,0
1620713826375,199191,,2337,0
1620713826375,199211,,2322,0
1620713826375,199231,,2238,0
1620713826375,199251,,2124,0
1620713826375,199271,,1979,0
1620713826375,199291,,1839,0
1620713826375,199311,,1705,0
1620713826375,199331,,1600,0
1620713826375,199351,,1472,0
1620713826375,199371,,1492,0
1620713826879,199392,,1563,0
1620713826879,199412,,1620,0
1620713826879,199432,,1642,0
1620713826879,199452,,1682,0
1620713826879,199472,,1645,0
1620713826879,199492,,1535,0
1620713826879,199512,,1466,0
1620713826879,199532,,1442,0
1620713826879,199552,,1463,0
1620713826879,199572,,1585,0
1620713826879,199592,,1674,0
1620713826879,199612,,1754,0
1620713826879,199632,,1841,0
1620713826879,199652,,1933,0
1620713826879,199672,,2095,1
1620713826879,199692,,2211,0
1620713826879,199712,,2298,0
1620713826879,199732,,2345,0
1620713826879,199752,,2290,0
1620713826879,199772,,2255,0
1620713826879,199792,,2128,0
1620713826879,199812,,1968,0
1620713826879,199832,,1830,0
1620713826879,199852,,1687,0
1620713826879,199872,,1632,0
1620713827382,199892,,1511,0
1620713827382,199912,,1520,0
1620713827382,199932,,1574,0
1620713827382,199952,,1648,0
1620713827382,199972,,1535,0
1620713827382,199992,,1563,0
1620713827382,200012,,1586,0
1620713827382,200032,,1600,0
1620713827382,200052,,1605,0
1620713827382,200072,,1616,0
1620713827382,200092,,1642,0
1620713827382,200112,,1680,0
1620713827382,200132,,1719,0
1620713827382,200152,,1763,0
1620713827382,200172,,1871,0
1620713827382,200192,,1872,0
1620713827382,200212,,1850,0
1620713827382,200232,,1853,0
1620713827382,200252,,1878,0
1620713827382,200272,,1906,0
1620713827382,200292,,1959,0
1620713827382,200312,,1954,0
1620713827382,200332,,1913,0
1620713827382,200352,,1863,0
1620713827382,200372,,1743,0
1620713824878,197649,,1826,1
1620713824878,197669,,1735,1
1620713824878,197689,,1651,1
1620713824878,197709,,1595,1
1620713824878,197729,,1535,1
1620713824878,197749,,1510,1
1620713824878,197769,,1497,1
1620713824878,197789,,1499,1
1620713824878,197809,,1508,1
1620713824878,197829,,1519,1
1620713824878,197849,,1525,1
1620713824878,197869,,1530,1
1620713825377,197890,,1521,1
1620713825377,197910,,1571,1
1620713825377,197930,,1614,1
1620713825377,197950,,1705,1
1620713825377,197970,,1673,1
1620713825377,197990,,1648,1
1620713825377,198010,,1623,1
1620713825377,198030,,1806,1
1620713825377,198050,,1965,1
1620713825377,198070,,2115,1
1620713825377,198090,,2241,1
1620713825377,198110,,2288,1
1620713825377,198130,,2335,1
1620713825377,198150,,2283,1
1620713825377,198170,,2156,1
1620713825377,198190,,2001,1
1620713825377,198210,,1838,1
1620713825377,198230,,1739,1
1620713825377,198250,,1650,1
1620713825377,198270,,1583,1
1620713825377,198290,,1531,1
1620713825377,198310,,1519,1
1620713825377,198330,,1461,1
1620713825377,198350,,1535,1
1620713825377,198370,,1619,1
1620713825877,198391,,1670,1
1620713825877,198411,,1689,1
1620713825877,198431,,1681,1
1620713825877,198451,,1707,1
1620713825877,198471,,1628,1
1620713825877,198491,,1570,1
1620713825877,198511,,1567,1
1620713825877,198531,,1597,1
1620713825877,198551,,1712,1
1620713825877,198571,,1831,1
1620713825877,198591,,1958,1
1620713825877,198611,,2096,1
1620713825877,198631,,2179,1
1620713825877,198651,,2263,1
1620713825877,198671,,2256,0
1620713825877,198691,,2175,0
1620713825877,198711,,2063,0
1620713825877,198731,,1903,0
1620713825877,198751,,1834,0
1620713825877,198771,,1728,0
1620713825877,198791,,1639,0
1620713825877,198811,,1574,0
1620713825877,198831,,1502,0
1620713825877,198851,,1527,0
1620713825877,198871,,1524,0
1620713826375,198891,,1461,0
1620713826375,198911,,1535,0
1620713826375,198931,,1615,0
1620713826375,198951,,1664,0
1620713826375,198971,,1696,0
1620713826375,198991,,1717,0
1620713826375,199011,,1743,0
1620713826375,199031,,1759,0
1620713826375,199051,,1840,0
1620713826375,199071,,1810,0
1620713826375,199091,,1797,0
1620713826375,199111,,1853,0
1620713826375,199131,,1949,0
1620713826375,199151,,2112,0
1620713826375,199171,,2263,0
1620713826375,199191,,2337,0
1620713826375,199211,,2322,0
1620713826375,199231,,2238,0
1620713826375,199251,,2124,0
1620713826375,199271,,1979,0
1620713826375,199291,,1839,0
1620713826375,199311,,1705,0
1620713826375,199331,,1600,0
1620713826375,199351,,1472,0
1620713826375,199371,,1492,0
1620713826879,199392,,1563,0
1620713826879,199412,,1620,0
1620713826879,199432,,1642,0
1620713826879,199452,,1682,0
1620713826879,199472,,1645,0
1620713826879,199492,,1535,0
1620713826879,199512,,1466,0
1620713826879,199532,,1442,0
1620713826879,199552,,1463,0
1620713826879,199572,,1585,0
1620713826879,199592,,1674,0
1620713826879,199612,,1754,0
1620713826879,199632,,1841,0
1620713826879,199652,,1933,0
1620713826879,199672,,2095,1
1620713826879,199692,,2211,0
1620713826879,199712,,2298,0
1620713826879,199732,,2345,0
1620713826879,199752,,2290,0
1620713826879,199772,,2255,0
1620713826879,199792,,2128,0
1620713826879,199812,,1968,0
1620713826879,199832,,1830,0
1620713826879,199852,,1687,0
1620713826879,199872,,1632,0
1620713827382,199892,,1511,0
1620713827382,199912,,1520,0
1620713827382,199932,,1574,0
1620713827382,199952,,1648,0
1620713827382,199972,,1535,0
1620713827382,199992,,1563,0
1620713827382,200012,,1586,0
1620713827382,200032,,1600,0
1620713827382,200052,,1605,0
1620713827382,200072,,1616,0
1620713827382,200092,,1642,0
1620713827382,200112,,1680,0
1620713827382,200132,,1719,0
1620713827382,200152,,1763,0
1620713827382,200172,,1871,0
1620713827382,200192,,1872,0
1620713827382,200212,,1850,0
1620713827382,200232,,1853,0
1620713827382,200252,,1878,0
1620713827382,200272,,1906,0
1620713827382,200292,,1959,0
1620713827382,200312,,1954,0
1620713827382,200332,,1913,0
1620713827382,200352,,1863,0
1620713827382,200372,,1743,0
1620713827893,200393,,1733,0
1620713827893,200413,,1787,0
1620713827893,200433,,1807,0
1620713827893,200453,,1781,0
1620713827893,200473,,1787,0
1620713827893,200493,,1746,0
1620713827893,200513,,1629,0
1620713827893,200533,,1521,0
1620713827893,200553,,1413,0
1620713827893,200573,,1454,0
1620713827893,200593,,1535,0
1620713827893,200613,,1648,0
1620713827893,200633,,1727,0
1620713827893,200653,,1787,0
1620713827893,200673,,1840,0
1620713827893,200693,,1923,1
1620713827893,200713,,1855,1
1620713827893,200733,,1776,1
1620713827893,200753,,1729,1
1620713827893,200773,,1693,1
1620713827893,200793,,1763,1
1620713827893,200813,,1819,1
1620713827893,200833,,1851,1
1620713827893,200853,,1871,1
1620713827893,200873,,1856,1
1620713828381,200893,,1803,1
1620713828381,200913,,1850,1
1620713828381,200933,,1905,1
1620713828381,200953,,1968,1
1620713828381,200973,,1862,1
1620713828381,200993,,1739,1
1620713828381,201013,,1666,1
1620713828381,201033,,1610,1
1620713828381,201053,,1583,1
1620713828381,201073,,1574,1
1620713828381,201093,,1588,1
1620713828381,201113,,1637,1
1620713828381,201133,,1650,1
1620713828381,201153,,1657,1
1620713828381,201173,,1674,1
1620713828381,201193,,1694,1
1620713828381,201213,,1771,1
1620713828381,201233,,1809,1
1620713828381,201253,,1835,1
1620713828381,201273,,1840,1
1620713828381,201293,,1815,1
1620713828381,201313,,1866,1
1620713828381,201333,,1872,1
1620713828381,201353,,1877,1
1620713828381,201373,,1875,1
1620713828880,201393,,1803,1
1620713828880,201413,,1841,1
1620713828880,201433,,1895,1
1620713828880,201453,,1965,0
1620713828880,201473,,1873,0
1620713828880,201493,,1737,0
1620713828880,201513,,1697,0
1620713828880,201533,,1649,0
1620713828880,201553,,1615,0
1620713828880,201573,,1603,0
1620713828880,201593,,1582,0
1620713828880,201613,,1575,0
1620713828880,201633,,1666,0
1620713828880,201653,,1739,0
1620713828880,201673,,1775,0
1620713828880,201693,,1777,0
1620713828880,201713,,1775,0
1620713828880,201733,,1776,0
1620713828880,201753,,1794,0
1620713828880,201773,,1815,0
1620713828880,201793,,1830,0
1620713828880,201813,,1902,0
1620713828880,201833,,1862,0
1620713828880,201853,,1808,0
1620713828880,201873,,1789,0
1620713829381,201893,,1742,0
1620713829381,201913,,1843,0
1620713829381,201933,,1961,0
1620713829381,201953,,2019,0
1620713829381,201973,,2039,0
1620713829381,201993,,2003,0
1620713829381,202013,,1974,0
1620713829381,202033,,1917,0
1620713829381,202053,,1776,0
1620713829381,202073,,1648,0
1620713829381,202093,,1577,0
1620713829381,202113,,1531,0
1620713829381,202133,,1568,0
1620713829381,202153,,1598,0
1620713829381,202173,,1625,0
1620713829381,202193,,1636,0
1620713829381,202213,,1616,0
1620713829381,202233,,1664,0
1620713829381,202253,,1670,0
1620713829381,202273,,1677,0
1620713829381,202293,,1681,0
1620713829381,202313,,1680,0
1620713829381,202333,,1798,0
1620713829381,202353,,1855,0
1620713829381,202373,,1882,0
1620713829883,202393,,1831,0
1620713829883,202413,,1904,0
1620713829883,202433,,2000,0
1620713829883,202453,,2076,1
1620713829883,202473,,2109,1
1620713829883,202493,,2096,1
1620713829883,202513,,2055,0
1620713829883,202533,,2054,0
1620713829883,202553,,1929,0
1620713829883,202573,,1787,0
1620713829883,202593,,1694,0
1620713829883,202613,,1630,0
1620713829883,202633,,1627,0
1620713829883,202653,,1643,0
1620713829883,202673,,1648,0
1620713829883,202693,,1654,0
1620713829883,202713,,1655,0
1620713829883,202733,,1655,0
1620713829883,202753,,1673,0
1620713829883,202773,,1660,0
1620713829883,202793,,1648,0
1620713829883,202813,,1633,0
1620713829883,202833,,1616,0
1620713829883,202853,,1657,0
1620713829883,202873,,1679,0
1620713830381,202894,,1651,0
1620713830381,202914,,1773,0
1620713830381,202934,,1908,0
1620713830381,202954,,2025,0
1620713830381,202974,,1975,0
1620713830381,202994,,1901,0
1620713830381,203014,,1840,0
1620713830381,203034,,1786,0
1620713830381,203054,,1810,0
1620713830381,203074,,1810,0
1620713830381,203094,,1798,0
1620713830381,203114,,1792,0
1620713830381,203134,,1760,0
1620713830381,203154,,1803,0
1620713830381,203174,,1798,0
1620713830381,203194,,1776,0
1620713830381,203214,,1745,0
1620713830381,203234,,1682,0
1620713830381,203254,,1716,0
1620713830381,203274,,1712,0
1620713830381,203294,,1694,0
1620713830381,203314,,1676,0
1620713830381,203334,,1635,0
1620713830381,203354,,1668,0
1620713830381,203374,,1669,0
1620713830886,203395,,1607,0
1620713830886,203415,,1661,0
1620713830886,203435,,1735,0
1620713830886,203455,,1866,0
1620713830886,203475,,1859,0
1620713830886,203495,,1840,0
1620713830886,203515,,1829,1
1620713830886,203535,,1809,1
1620713830886,203555,,1815,1
1620713830886,203575,,1815,1
1620713830886,203595,,1806,1
1620713830886,203615,,1794,1
1620713830886,203635,,1792,1
1620713830886,203656,,1803,1
1620713830886,203676,,1825,1
1620713830886,203696,,1819,1
1620713830886,203716,,1801,1
1620713830886,203736,,1786,1
1620713830886,203756,,1775,1
1620713830886,203776,,1775,1
1620713830886,203796,,1751,1
1620713830886,203816,,1728,1
1620713830886,203836,,1709,1
1620713830886,203856,,1687,1
1620713830886,203876,,1712,1
1620713831389,203896,,1631,1
1620713831389,203916,,1712,1
1620713831389,203936,,1775,1
1620713831389,203956,,1799,1
1620713831389,203976,,1792,1
1620713831389,203996,,1764,1
1620713831389,204016,,1759,1
1620713831389,204036,,1840,1
1620713831389,204056,,1776,1
1620713831389,204076,,1757,1
1620713831389,204096,,1810,1
1620713831389,204116,,1863,1
1620713831389,204136,,1892,1
1620713831389,204156,,1910,1
1620713831389,204176,,1954,0
1620713831389,204196,,1879,0
1620713831389,204216,,1809,0
1620713831389,204236,,1766,0
1620713831389,204256,,1699,0
1620713831389,204276,,1694,0
1620713831389,204296,,1776,0
1620713831389,204316,,1847,0
1620713831389,204336,,1879,0
1620713831389,204356,,1877,0
1620713831389,204376,,1917,0
1620713831893,204396,,1756,0
1620713831893,204416,,1708,0
1620713831893,204436,,1697,0
1620713831893,204456,,1729,0
1620713831893,204476,,1679,0
1620713831893,204496,,1618,0
1620713831893,204516,,1570,0
1620713831893,204536,,1535,0
1620713831893,204556,,1566,0
1620713831893,204576,,1531,0
1620713831893,204596,,1663,0
1620713831893,204616,,1819,0
1620713831893,204636,,1949,0
1620713831893,204656,,2026,0
1620713831893,204676,,2111,0
1620713831893,204696,,2062,0
1620713831893,204716,,1941,0
1620713831893,204736,,1860,0
1620713831893,204756,,1819,0
1620713831893,204776,,1814,0
1620713831893,204796,,1872,0
1620713831893,204816,,1891,0
1620713831893,204836,,1894,0
1620713831893,204856,,1889,0
1620713831893,204876,,1862,0
1620713832386,204896,,1802,0
1620713832386,204916,,1887,0
1620713832386,204936,,1927,0
1620713832386,204956,,1979,0
1620713832386,204976,,1852,0
1620713832386,204996,,1761,0
1620713832386,205016,,1663,0
1620713832386,205036,,1591,0
1620713832386,205056,,1535,0
1620713832386,205076,,1515,0
1620713832386,205096,,1583,0
1620713832386,205116,,1614,0
1620713832386,205136,,1633,0
1620713832386,205156,,1655,0
1620713832386,205176,,1655,1
1620713832386,205196,,1744,1
1620713832386,205216,,1825,1
1620713832386,205236,,1872,1
1620713832386,205256,,1907,1
1620713832386,205276,,1905,1
1620713832386,205296,,1931,1
1620713832386,205316,,1936,1
1620713832386,205336,,1933,1
1620713832386,205356,,1921,1
1620713832386,205376,,1902,1
1620713832882,205396,,1829,1
1620713832882,205416,,1894,1
1620713832882,205436,,1955,1
1620713832882,205456,,2018,1
1620713832882,205476,,1932,1
1620713832882,205496,,1815,1
1620713832882,205516,,1761,1
1620713832882,205536,,1705,1
1620713832882,205556,,1609,1
1620713832882,205576,,1648,1
1620713832882,205596,,1727,1
1620713832882,205616,,1846,1
1620713832882,205636,,1794,1
1620713832882,205656,,1712,1
1620713832882,205676,,1659,1
1620713832882,205696,,1612,1
1620713832882,205716,,1635,1
1620713832882,205736,,1629,1
1620713832882,205756,,1636,1
1620713832882,205776,,1683,1
1620713832882,205796,,1728,1
1620713832882,205816,,1840,1
1620713832882,205836,,1895,1
1620713832882,205856,,1923,1
1620713832882,205876,,1934,1
1620713833389,205896,,1868,1
1620713833389,205916,,1929,1
1620713833389,205936,,1988,1
1620713833389,205956,,2067,1
1620713833389,205976,,1974,1
1620713833389,205996,,1851,1
1620713833389,206016,,1802,1
1620713833389,206036,,1757,1
1620713833389,206056,,1728,1
1620713833389,206076,,1715,1
1620713833389,206096,,1707,1
1620713833389,206116,,1675,1
1620713833389,206136,,1755,1
1620713833389,206156,,1825,1
1620713833389,206176,,1862,1
1620713833389,206196,,1859,1
1620713833389,206216,,1884,1
1620713833389,206236,,1786,1
1620713833389,206256,,1664,1
1620713833389,206276,,1577,1
1620713833389,206296,,1530,1
1620713833389,206316,,1535,1
1620713833389,206336,,1639,1
1620713833389,206356,,1734,1
1620713833389,206376,,1818,1
1620713833890,206396,,1826,1
1620713833890,206416,,1934,1
1620713833890,206436,,2041,0
1620713833890,206456,,2169,0
1620713833890,206476,,2128,0
1620713833890,206496,,2047,0
1620713833890,206516,,1969,0
1620713833890,206536,,1968,0
1620713833890,206556,,1935,0
1620713833890,206576,,1904,0
1620713833890,206596,,1873,0
1620713833890,206616,,1819,0
1620713833890,206636,,1840,0
1620713833890,206656,,1814,0
1620713833890,206676,,1777,0
1620713833890,206696,,1744,0
1620713833890,206716,,1687,0
1620713833890,206736,,1712,0
1620713833890,206756,,1692,0
1620713833890,206776,,1679,0
1620713833890,206796,,1666,0
1620713833890,206816,,1619,0
1620713833890,206836,,1615,0
1620713833890,206856,,1696,0
1620713833890,206876,,1777,0
1620713834391,206897,,1839,0
1620713834391,206917,,1952,0
1620713834391,206937,,1971,0
1620713834391,206957,,2023,0
1620713834391,206977,,1943,0
1620713834391,206997,,1877,0
1620713834391,207017,,1871,0
1620713834391,207037,,1943,0
1620713834391,207057,,2095,0
1620713834391,207077,,2197,0
1620713834391,207097,,2253,0
1620713834391,207117,,2256,0
1620713834391,207137,,2224,0
1620713834391,207157,,2160,0
1620713834391,207177,,2064,0
1620713834391,207197,,1953,0
1620713834391,207217,,1847,0
1620713834391,207237,,1767,0
1620713834391,207257,,1734,0
1620713834391,207277,,1687,0
1620713834391,207297,,1651,0
1620713834391,207317,,1627,0
1620713834391,207337,,1588,0
1620713834391,207357,,1634,0
1620713834391,207377,,1629,0
1620713834890,207397,,1555,0
1620713834890,207417,,1605,0
1620713834890,207437,,1679,0
1620713834890,207457,,1751,0
1620713834890,207477,,1806,0
1620713834890,207497,,1904,0
1620713834890,207517,,1882,0
1620713834890,207537,,1800,0
1620713834890,207557,,1808,0
1620713834890,207577,,1840,0
1620713834890,207597,,1904,0
1620713834890,207617,,2000,0
1620713834890,207637,,2068,0
1620713834890,207657,,2192,0
1620713834890,207677,,2228,0
1620713834890,207697,,2198,0
1620713834890,207717,,2129,0
1620713834890,207737,,2019,0
1620713834890,207757,,1965,0
1620713834890,207777,,1872,0
1620713834890,207797,,1794,0
1620713834890,207817,,1717,0
1620713834890,207837,,1660,0
1620713834890,207857,,1589,0
1620713834890,207877,,1655,0
1620713835383,207898,,1727,0
1620713835383,207918,,1769,0
1620713835383,207938,,1765,0
1620713835383,207958,,1801,0
1620713835383,207978,,1694,0
1620713835383,207998,,1573,0
1620713835383,208018,,1490,0
1620713835383,208038,,1495,0
1620713835383,208058,,1494,0
1620713835383,208078,,1650,0
1620713835383,208098,,1798,0
1620713835383,208118,,1914,0
1620713835383,208138,,1981,0
1620713835383,208158,,2091,0
1620713835383,208178,,2095,0
1620713835383,208198,,2055,0
1620713835383,208218,,2010,0
1620713835383,208238,,1994,0
1620713835383,208258,,1968,0
1620713835383,208278,,1981,0
1620713835383,208298,,1947,0
1620713835383,208318,,1903,0
1620713835383,208338,,1856,0
1620713835383,208358,,1787,0
1620713835383,208378,,1778,0
1620713835885,208398,,1677,0
1620713835885,208418,,1697,0
1620713835885,208438,,1744,0
1620713835885,208458,,1791,0
1620713835885,208478,,1747,0
1620713835885,208498,,1654,0
1620713835885,208518,,1571,0
1620713835885,208538,,1519,0
1620713835885,208558,,1447,0
1620713835885,208578,,1529,0
1620713835885,208598,,1659,0
1620713835885,208618,,1840,0
1620713835885,208638,,1846,0
1620713835885,208658,,1791,0
1620713835885,208679,,1775,0
1620713835885,208699,,1895,0
1620713835885,208719,,2043,0
1620713835885,208739,,2174,0
1620713835885,208759,,2272,0
1620713835885,208779,,2386,0
1620713835885,208799,,2307,0
1620713835885,208819,,2164,0
1620713835885,208839,,2017,0
1620713835885,208859,,1872,0
1620713835885,208879,,1743,0
1620713836386,208900,,1745,0
1620713836386,208920,,1768,0
1620713836386,208940,,1772,0
1620713836386,208960,,1754,0
1620713836386,208980,,1776,0
1620713836386,209000,,1682,0
1620713836386,209020,,1567,0
1620713836386,209040,,1479,0
1620713836386,209060,,1439,0
1620713836386,209080,,1436,0
1620713836386,209100,,1478,0
1620713836386,209120,,1514,0
1620713836386,209140,,1562,0
1620713836386,209160,,1618,0
1620713836386,209180,,1666,0
1620713836386,209200,,1753,0
1620713836386,209220,,1822,0
1620713836386,209240,,1897,0
1620713836386,209260,,1999,0
1620713836386,209280,,2112,0
1620713836386,209300,,2320,0
1620713836386,209320,,2452,0
1620713836386,209340,,2519,0
1620713836386,209360,,2513,0
1620713836386,209380,,2410,0
1620713836894,209400,,2252,0
1620713836894,209420,,2141,0
1620713836894,209440,,2064,0
1620713836894,209460,,1984,0
1620713836894,209480,,1765,0
1620713836894,209500,,1646,0
1620713836894,209520,,1520,0
1620713836894,209540,,1446,0
1620713836894,209560,,1421,0
1620713836894,209580,,1401,0
1620713836894,209600,,1457,0
1620713836894,209620,,1503,0
1620713836894,209640,,1519,0
1620713836894,209660,,1532,0
1620713836894,209680,,1520,0
1620713836894,209700,,1535,0
1620713836894,209720,,1584,0
1620713836894,209740,,1616,1
1620713836894,209760,,1655,1
1620713836894,209780,,1700,1
1620713836894,209800,,1777,1
1620713836894,209820,,1903,1
1620713836894,209840,,2032,1
1620713836894,209860,,2194,1
1620713836894,209880,,2341,1
1620713837386,209900,,2368,1
1620713837386,209920,,2470,1
1620713837386,209940,,2506,1
1620713837386,209960,,2491,1
1620713837386,209980,,2265,1
1620713837386,210000,,1988,1
1620713837386,210020,,1782,1
1620713837386,210040,,1609,1
1620713837386,210060,,1489,1
1620713837386,210080,,1431,1
1620713837386,210100,,1392,1
1620713837386,210120,,1465,1
1620713837386,210140,,1493,1
1620713837386,210160,,1515,1
1620713837386,210180,,1522,1
1620713837386,210200,,1505,1
1620713837386,210220,,1561,1
1620713837386,210240,,1573,1
1620713837386,210260,,1571,1
1620713837386,210280,,1563,1
1620713837386,210300,,1520,1
1620713837386,210321,,1622,1
1620713837386,210341,,1680,1
1620713837386,210361,,1709,1
1620713837386,210381,,1733,1
1620713837899,210401,,1701,1
1620713837899,210421,,1811,1
1620713837899,210441,,1948,1
1620713837899,210461,,2149,1
1620713837899,210481,,2178,1
1620713837899,210501,,2125,1
1620713837899,210521,,2085,1
1620713837899,210541,,2113,1
1620713837899,210561,,2123,1
1620713837899,210581,,2082,1
1620713837899,210601,,2013,1
1620713837899,210621,,1971,1
1620713837899,210641,,1815,1
1620713837899,210661,,1663,1
1620713837899,210681,,1535,1
1620713837899,210701,,1482,1
1620713837899,210721,,1474,1
1620713837899,210741,,1514,1
1620713837899,210761,,1530,1
1620713837899,210781,,1559,1
1620713837899,210801,,1581,1
1620713837899,210821,,1583,1
1620713837899,210841,,1606,1
1620713837899,210861,,1600,1
1620713837899,210881,,1602,1
1620713838388,210901,,1573,1
1620713838388,210921,,1664,1
1620713838388,210941,,1793,1
1620713838388,210961,,1934,1
1620713838388,210981,,1904,1
1620713838388,211001,,1854,1
1620713838388,211021,,1781,1
1620713838388,211041,,1841,1
1620713838388,211061,,1953,1
1620713838388,211081,,2054,1
1620713838388,211101,,2089,1
1620713838388,211121,,2113,1
1620713838388,211141,,2074,1
1620713838388,211161,,1931,1
1620713838388,211181,,1786,1
1620713838388,211201,,1680,1
1620713838388,211221,,1571,1
1620713838388,211241,,1535,1
1620713838388,211261,,1610,1
1620713838388,211281,,1680,1
1620713838388,211301,,1719,1
1620713838388,211321,,1731,1
1620713838388,211341,,1783,1
1620713838388,211361,,1705,1
1620713838388,211381,,1594,1
1620713838906,211401,,1467,1
1620713838906,211421,,1501,1
1620713838906,211441,,1617,1
1620713838906,211461,,1789,1
1620713838906,211481,,1827,1
1620713838906,211501,,1839,1
1620713838906,211521,,1857,1
1620713838906,211541,,1898,1
1620713838906,211561,,1883,1
1620713838906,211581,,2021,1
1620713838906,211601,,2147,1
1620713838906,211621,,2278,0
1620713838906,211641,,2150,0
1620713838906,211661,,2067,0
1620713838906,211681,,1968,0
1620713838906,211701,,1874,0
1620713838906,211721,,1779,0
1620713838906,211741,,1762,0
1620713838906,211761,,1699,0
1620713838906,211781,,1595,0
1620713838906,211801,,1533,0
1620713838906,211821,,1526,0
1620713838906,211841,,1564,0
1620713838906,211861,,1675,0
1620713838906,211881,,1789,0
1620713839393,211901,,1814,0
1620713839393,211921,,1982,0
1620713839393,211941,,2159,0
1620713839393,211961,,2327,0
1620713839393,211981,,2352,0
1620713839393,212001,,2239,0
1620713839393,212021,,2112,0
1620713839393,212041,,1939,0
1620713839393,212061,,1889,0
1620713839393,212081,,1830,0
1620713839393,212101,,1786,0
1620713839393,212121,,1770,0
1620713839393,212141,,1744,0
1620713839393,212161,,1831,0
1620713839393,212181,,1909,0
1620713839393,212201,,1953,0
1620713839393,212221,,1941,0
1620713839393,212241,,1871,0
1620713839393,212261,,1812,0
1620713839393,212281,,1744,0
1620713839393,212301,,1683,0
1620713839393,212321,,1655,0
1620713839393,212341,,1623,0
1620713839393,212361,,1610,0
1620713839393,212381,,1580,0
1620713839887,212401,,1463,0
1620713839887,212421,,1515,0
1620713839887,212441,,1680,0
1620713839887,212461,,1911,0
1620713839887,212481,,2003,0
1620713839887,212501,,1988,0
1620713839887,212521,,1943,0
1620713839887,212541,,1856,0
1620713839887,212561,,1727,0
1620713839887,212581,,1623,0
1620713839887,212601,,1519,0
1620713839887,212621,,1390,1
1620713839887,212641,,1199,1
1620713839887,212661,,1105,1
1620713839887,212681,,1349,1
1620713839887,212701,,1828,1
1620713839887,212721,,2091,1
1620713839887,212741,,2309,1
1620713839887,212761,,2649,1
1620713839887,212781,,3108,1
1620713839887,212801,,3279,1
1620713839887,212821,,3347,1
1620713839887,212841,,3308,1
1620713839887,212861,,2907,1
1620713839887,212881,,2515,1
1620713837899,210421,,1811,1
1620713837899,210441,,1948,1
1620713837899,210461,,2149,1
1620713837899,210481,,2178,1
1620713837899,210501,,2125,1
1620713837899,210521,,2085,1
1620713837899,210541,,2113,1
1620713837899,210561,,2123,1
1620713837899,210581,,2082,1
1620713837899,210601,,2013,1
1620713837899,210621,,1971,1
1620713837899,210641,,1815,1
1620713837899,210661,,1663,1
1620713837899,210681,,1535,1
1620713837899,210701,,1482,1
1620713837899,210721,,1474,1
1620713837899,210741,,1514,1
1620713837899,210761,,1530,1
1620713837899,210781,,1559,1
1620713837899,210801,,1581,1
1620713837899,210821,,1583,1
1620713837899,210841,,1606,1
1620713837899,210861,,1600,1
1620713837899,210881,,1602,1
1620713838388,210901,,1573,1
1620713838388,210921,,1664,1
1620713838388,210941,,1793,1
1620713838388,210961,,1934,1
1620713838388,210981,,1904,1
1620713838388,211001,,1854,1
1620713838388,211021,,1781,1
1620713838388,211041,,1841,1
1620713838388,211061,,1953,1
1620713838388,211081,,2054,1
1620713838388,211101,,2089,1
1620713838388,211121,,2113,1
1620713838388,211141,,2074,1
1620713838388,211161,,1931,1
1620713838388,211181,,1786,1
1620713838388,211201,,1680,1
1620713838388,211221,,1571,1
1620713838388,211241,,1535,1
1620713838388,211261,,1610,1
1620713838388,211281,,1680,1
1620713838388,211301,,1719,1
1620713838388,211321,,1731,1
1620713838388,211341,,1783,1
1620713838388,211361,,1705,1
1620713838388,211381,,1594,1
1620713838906,211401,,1467,1
1620713838906,211421,,1501,1
1620713838906,211441,,1617,1
1620713838906,211461,,1789,1
1620713838906,211481,,1827,1
1620713838906,211501,,1839,1
1620713838906,211521,,1857,1
1620713838906,211541,,1898,1
1620713838906,211561,,1883,1
1620713838906,211581,,2021,1
1620713838906,211601,,2147,1
1620713838906,211621,,2278,0
1620713838906,211641,,2150,0
1620713838906,211661,,2067,0
1620713838906,211681,,1968,0
1620713838906,211701,,1874,0
1620713838906,211721,,1779,0
1620713838906,211741,,1762,0
1620713838906,211761,,1699,0
1620713838906,211781,,1595,0
1620713838906,211801,,1533,0
1620713838906,211821,,1526,0
1620713838906,211841,,1564,0
1620713838906,211861,,1675,0
1620713838906,211881,,1789,0
1620713839393,211901,,1814,0
1620713839393,211921,,1982,0
1620713839393,211941,,2159,0
1620713839393,211961,,2327,0
1620713839393,211981,,2352,0
1620713839393,212001,,2239,0
1620713839393,212021,,2112,0
1620713839393,212041,,1939,0
1620713839393,212061,,1889,0
1620713839393,212081,,1830,0
1620713839393,212101,,1786,0
1620713839393,212121,,1770,0
1620713839393,212141,,1744,0
1620713839393,212161,,1831,0
1620713839393,212181,,1909,0
1620713839393,212201,,1953,0
1620713839393,212221,,1941,0
1620713839393,212241,,1871,0
1620713839393,212261,,1812,0
1620713839393,212281,,1744,0
1620713839393,212301,,1683,0
1620713839393,212321,,1655,0
1620713839393,212341,,1623,0
1620713839393,212361,,1610,0
1620713839393,212381,,1580,0
1620713839887,212401,,1463,0
1620713839887,212421,,1515,0
1620713839887,212441,,1680,0
1620713839887,212461,,1911,0
1620713839887,212481,,2003,0
1620713839887,212501,,1988,0
1620713839887,212521,,1943,0
1620713839887,212541,,1856,0
1620713839887,212561,,1727,0
1620713839887,212581,,1623,0
1620713839887,212601,,1519,0
1620713839887,212621,,1390,1
1620713839887,212641,,1199,1
1620713839887,212661,,1105,1
1620713839887,212681,,1349,1
1620713839887,212701,,1828,1
1620713839887,212721,,2091,1
1620713839887,212741,,2309,1
1620713839887,212761,,2649,1
1620713839887,212781,,3108,1
1620713839887,212801,,3279,1
1620713839887,212821,,3347,1
1620713839887,212841,,3308,1
1620713839887,212861,,2907,1
1620713839887,212881,,2515,1
1620713840390,212901,,2011,1
1620713840390,212921,,1675,1
1620713840390,212941,,1469,1
1620713840390,212961,,1355,1
1620713840390,212981,,1241,1
1620713840390,213001,,1283,1
1620713840390,213021,,1351,1
1620713840390,213041,,1390,1
1620713840390,213061,,1391,1
1620713840390,213081,,1422,1
1620713840390,213101,,1317,1
1620713840390,213121,,1221,1
1620713840390,213141,,1178,1
1620713840390,213161,,1170,1
1620713840390,213182,,1226,1
1620713840390,213202,,1290,1
1620713840390,213222,,1378,1
1620713840390,213242,,1511,1
1620713840390,213262,,1695,1
1620713840390,213282,,1930,1
1620713840390,213302,,2180,1
1620713840390,213322,,2358,1
1620713840390,213342,,2481,1
1620713840390,213362,,2535,1
1620713840390,213382,,2518,1
1620713840892,213402,,2377,1
1620713840892,213422,,2298,1
1620713840892,213442,,2207,1
1620713840892,213462,,2098,1
1620713840892,213482,,1825,1
1620713840892,213502,,1584,1
1620713840892,213522,,1391,1
1620713840892,213542,,1283,1
1620713840892,213562,,1277,1
1620713840892,213582,,1329,1
1620713840892,213602,,1456,1
1620713840892,213622,,1535,1
1620713840892,213642,,1584,1
1620713840892,213662,,1604,1
1620713840892,213682,,1565,1
1620713840892,213702,,1591,1
1620713840892,213722,,1655,1
1620713840892,213742,,1693,1
1620713840892,213762,,1712,1
1620713840892,213782,,1722,1
1620713840892,213802,,1753,1
1620713840892,213822,,1706,1
1620713840892,213842,,1707,1
1620713840892,213862,,1791,1
1620713840892,213882,,1873,1
1620713841399,213903,,1997,1
1620713841399,213923,,2179,1
1620713841399,213943,,2261,1
1620713841399,213963,,2256,1
1620713841399,213983,,2176,1
1620713841399,214004,,2095,1
1620713841399,214024,,1875,1
1620713841399,214044,,1667,1
1620713841399,214064,,1521,1
1620713841399,214084,,1425,1
1620713841399,214104,,1417,1
1620713841399,214124,,1428,1
1620713841399,214144,,1454,1
1620713841399,214164,,1472,1
1620713841399,214184,,1490,1
1620713841399,214204,,1535,1
1620713841399,214224,,1593,1
1620713841399,214244,,1603,1
1620713841399,214264,,1610,1
1620713841399,214284,,1605,1
1620713841399,214304,,1535,1
1620713841399,214324,,1626,1
1620713841399,214344,,1747,1
1620713841399,214364,,1895,1
1620713841399,214384,,2098,1
1620713841963,214405,,2318,1
1620713841963,214425,,2540,1
1620713841963,214445,,2687,1
1620713841963,214465,,2817,0
1620713841963,214485,,2672,0
1620713841963,214505,,2384,0
1620713841963,214525,,2164,0
1620713841963,214545,,2004,0
1620713841963,214565,,1865,0
1620713841963,214585,,1728,0
1620713841963,214605,,1627,0
1620713841963,214625,,1535,0
1620713841963,214645,,1481,0
1620713841963,214665,,1461,0
1620713841963,214685,,1459,0
1620713841963,214705,,1501,0
1620713841963,214725,,1524,0
1620713841963,214745,,1459,0
1620713841963,214765,,1406,0
1620713841963,214785,,1390,0
1620713841963,214805,,1378,0
1620713841963,214825,,1474,0
1620713841963,214845,,1520,0
1620713841963,214865,,1587,0
1620713841963,214885,,1685,0
1620713842396,214905,,1763,0
1620713842396,214925,,2070,0
1620713842396,214945,,2390,0
1620713842396,214965,,2765,0
1620713842396,214985,,3015,0
1620713842396,215005,,3120,0
1620713842396,215025,,3098,0
1620713842396,215045,,2763,0
1620713842396,215065,,2383,0
1620713842396,215085,,2034,0
1620713842396,215105,,1785,0
1620713842396,215125,,1489,0
1620713842396,215145,,1439,0
1620713842396,215165,,1439,0
1620713842396,215185,,1470,0
1620713842396,215205,,1486,0
1620713842396,215225,,1572,0
1620713842396,215245,,1531,0
1620713842396,215265,,1455,0
1620713842396,215285,,1402,0
1620713842396,215305,,1389,0
1620713842396,215325,,1399,0
1620713842396,215345,,1461,0
1620713842396,215365,,1495,0
1620713842396,215385,,1519,0
1620713842914,215405,,1478,0
1620713842914,215425,,1582,0
1620713842914,215445,,1728,0
1620713842914,215465,,1951,1
1620713842914,215485,,2099,1
1620713842914,215505,,2270,1
1620713842914,215525,,2427,1
1620713842914,215545,,2666,0
1620713842914,215565,,2763,0
1620713842914,215585,,2727,0
1620713842914,215605,,2559,0
1620713842914,215625,,2339,0
1620713842914,215645,,2145,0
1620713842914,215665,,1920,0
1620713842914,215685,,1717,0
1620713842914,215705,,1557,0
1620713842914,215725,,1420,0
1620713842914,215745,,1423,0
1620713842914,215765,,1424,0
1620713842914,215785,,1425,0
1620713842914,215805,,1442,0
1620713842914,215825,,1446,0
1620713842914,215845,,1488,0
1620713842914,215865,,1531,0
1620713842914,215885,,1533,0
1620713843403,215906,,1459,0
1620713843403,215926,,1519,0
1620713843403,215947,,1598,0
1620713843403,215967,,1683,0
1620713843403,215987,,1627,0
1620713843403,216007,,1570,0
1620713843403,216027,,1581,0
1620713843403,216047,,1645,0
1620713843403,216067,,1960,0
1620713843403,216087,,2327,0
1620713843403,216107,,2659,0
1620713843403,216127,,2872,0
1620713843403,216147,,2992,0
1620713843403,216167,,2811,0
1620713843403,216187,,2486,0
1620713843403,216207,,2164,0
1620713843403,216227,,1876,0
1620713843403,216247,,1646,0
1620713843403,216267,,1520,0
1620713843403,216287,,1426,0
1620713843403,216307,,1382,0
1620713843403,216327,,1382,0
1620713843403,216347,,1395,0
1620713843403,216367,,1469,0
1620713843403,216387,,1494,0
1620713843904,216407,,1446,0
1620713843904,216427,,1515,0
1620713843904,216447,,1591,0
1620713843904,216467,,1687,0
1620713843904,216487,,1627,0
1620713843904,216507,,1528,0
1620713843904,216527,,1460,0
1620713843904,216547,,1392,1
1620713843904,216567,,1450,1
1620713843904,216587,,1647,1
1620713843904,216607,,1914,1
1620713843904,216627,,2234,1
1620713843904,216647,,2559,1
1620713843904,216667,,2864,0
1620713843904,216687,,2912,0
1620713843904,216707,,2794,0
1620713843904,216727,,2559,0
1620713843904,216747,,2291,0
1620713843904,216767,,2091,0
1620713843904,216787,,1852,0
1620713843904,216807,,1653,0
1620713843904,216827,,1505,0
1620713843904,216847,,1401,0
1620713843904,216867,,1378,0
1620713843904,216887,,1387,0
1620713844398,216907,,1345,0
1620713844398,216927,,1425,0
1620713844398,216947,,1520,0
1620713844398,216967,,1654,0
1620713844398,216987,,1643,0
1620713844398,217007,,1583,0
1620713844398,217027,,1511,0
1620713844398,217047,,1479,0
1620713844398,217067,,1456,0
1620713844398,217087,,1520,0
1620713844398,217107,,1568,0
1620713844398,217127,,1646,0
1620713844398,217147,,1794,0
1620713844398,217167,,2010,0
1620713844398,217187,,2378,0
1620713844398,217207,,2699,0
1620713844398,217227,,2963,0
1620713844398,217247,,3100,0
1620713844398,217267,,3006,0
1620713844398,217287,,2839,0
1620713844398,217307,,2538,0
1620713844398,217327,,2206,0
1620713844398,217347,,1898,0
1620713844398,217367,,1603,0
1620713844398,217387,,1431,0
1620713844898,217407,,1406,0
1620713844898,217427,,1445,0
1620713844898,217447,,1472,0
1620713844898,217467,,1519,0
1620713844898,217488,,1597,0
1620713844898,217508,,1526,0
1620713844898,217528,,1435,0
1620713844898,217548,,1370,0
1620713844898,217568,,1307,0
1620713844898,217588,,1360,0
1620713844898,217608,,1380,0
1620713844898,217628,,1386,0
1620713844898,217648,,1388,0
1620713844898,217668,,1381,1
1620713844898,217688,,1417,1
1620713844898,217708,,1487,1
1620713844898,217728,,1648,1
1620713844898,217748,,1922,1
1620713844898,217768,,2303,1
1620713844898,217788,,2682,0
1620713844898,217808,,3087,0
1620713844898,217828,,3295,0
1620713844898,217848,,3244,0
1620713844898,217868,,2977,0
1620713844898,217888,,2624,0
1620713845417,217908,,2208,0
1620713845417,217928,,1915,0
1620713845417,217948,,1715,0
1620713845417,217968,,1615,0
1620713845417,217988,,1418,0
1620713845417,218008,,1323,0
1620713845417,218028,,1276,0
1620713845417,218048,,1287,0
1620713845417,218068,,1328,0
1620713845417,218088,,1375,0
1620713845417,218108,,1447,0
1620713845417,218128,,1477,0
1620713845417,218148,,1481,0
1620713845417,218168,,1478,0
1620713845417,218188,,1431,0
1620713845417,218208,,1494,0
1620713845417,218228,,1487,0
1620713845417,218248,,1453,0
1620713845417,218268,,1419,0
1620713845417,218288,,1360,0
1620713845417,218308,,1421,0
1620713845417,218328,,1520,0
1620713845417,218348,,1726,0
1620713845417,218368,,2037,0
1620713845417,218388,,2417,0
1620713845903,218408,,2790,0
1620713845903,218428,,3175,0
1620713845903,218448,,3381,0
1620713845903,218468,,3337,0
1620713845903,218488,,2833,0
1620713845903,218508,,2368,0
1620713845903,218528,,2039,0
1620713845903,218548,,1749,0
1620713845903,218568,,1558,0
1620713845903,218588,,1412,0
1620713845903,218608,,1392,0
1620713845903,218628,,1327,0
1620713845903,218648,,1277,0
1620713845903,218668,,1265,0
1620713845903,218688,,1296,0
1620713845903,218708,,1348,0
1620713845903,218728,,1421,0
1620713845903,218748,,1463,0
1620713845903,218768,,1494,0
1620713845903,218788,,1510,0
1620713845903,218808,,1512,0
1620713845903,218828,,1520,0
1620713845903,218848,,1490,0
1620713845903,218868,,1457,0
1620713845903,218888,,1422,0
1620713846400,218909,,1331,0
1620713846400,218929,,1414,0
1620713846400,218949,,1586,0
1620713846400,218969,,1877,0
1620713846400,218989,,2157,0
1620713846400,219009,,2416,0
1620713846400,219029,,2707,0
1620713846400,219049,,2894,0
1620713846400,219069,,2898,0
1620713846400,219089,,2741,0
1620713846400,219109,,2480,0
1620713846400,219129,,2214,0
1620713846400,219149,,1918,0
1620713846400,219169,,1654,0
1620713846400,219189,,1461,0
1620713846400,219209,,1329,0
1620713846400,219229,,1335,0
1620713846400,219249,,1348,0
1620713846400,219269,,1376,0
1620713846400,219289,,1401,0
1620713846400,219309,,1394,0
1620713846400,219329,,1474,0
1620713846400,219349,,1506,0
1620713846400,219369,,1506,0
1620713846400,219389,,1489,0
1620713846906,219409,,1406,0
1620713846906,219429,,1439,0
1620713846906,219449,,1502,0
1620713846906,219469,,1584,0
1620713846906,219489,,1509,0
1620713846906,219509,,1405,0
1620713846906,219529,,1387,0
1620713846906,219549,,1456,0
1620713846906,219569,,1655,0
1620713846906,219589,,1994,0
1620713846906,219609,,2403,0
1620713846906,219629,,2799,0
1620713846906,219649,,3189,0
1620713846906,219669,,3294,0
1620713846906,219689,,3131,0
1620713846906,219709,,2795,0
1620713846906,219729,,2417,0
1620713846906,219749,,2090,0
1620713846906,219769,,1767,0
1620713846906,219789,,1514,0
1620713846906,219809,,1348,0
1620713846906,219829,,1257,0
1620713846906,219849,,1290,0
1620713846906,219869,,1323,0
1620713846906,219889,,1379,0
1620713847409,219909,,1366,0
1620713847409,219929,,1456,0
1620713847409,219949,,1535,0
1620713847409,219969,,1615,0
1620713847409,219989,,1611,0
1620713847409,220009,,1584,0
1620713847409,220029,,1535,0
1620713847409,220049,,1486,0
1620713847409,220069,,1441,0
1620713847409,220089,,1399,0
1620713847409,220109,,1379,0
1620713847409,220129,,1370,0
1620713847409,220149,,1450,0
1620713847409,220169,,1468,0
1620713847409,220189,,1616,0
1620713847409,220209,,1936,0
1620713847409,220229,,2322,0
1620713847409,220249,,2777,0
1620713847409,220269,,3202,0
1620713847409,220289,,3356,0
1620713847409,220309,,3206,0
1620713847409,220329,,2862,0
1620713847409,220350,,2486,0
1620713847409,220370,,2110,0
1620713847409,220390,,1773,0
1620713847905,220410,,1413,0
1620713847905,220430,,1362,0
1620713847905,220450,,1369,0
1620713847905,220470,,1391,0
1620713847905,220490,,1422,0
1620713847905,220510,,1493,0
1620713847905,220530,,1443,0
1620713847905,220550,,1395,0
1620713847905,220570,,1386,0
1620713847905,220590,,1375,0
1620713847905,220610,,1373,0
1620713847905,220630,,1373,0
1620713847905,220650,,1365,0
1620713847905,220670,,1392,0
1620713847905,220690,,1392,0
1620713847905,220710,,1390,0
1620713847905,220730,,1381,0
1620713847905,220750,,1371,0
1620713847905,220770,,1397,0
1620713847905,220790,,1424,0
1620713847905,220810,,1491,0
1620713847905,220830,,1669,0
1620713847905,220850,,1930,0
1620713847905,220870,,2363,0
1620713847905,220890,,2731,0
1620713848405,220910,,2931,0
1620713848405,220930,,3092,0
1620713848405,220950,,3061,0
1620713848405,220970,,2862,0
1620713848405,220990,,2450,0
1620713848405,221010,,2047,0
1620713848405,221030,,1696,0
1620713848405,221050,,1429,0
1620713848405,221070,,1297,0
1620713848405,221090,,1236,0
1620713848405,221110,,1237,0
1620713848405,221130,,1283,0
1620713848405,221150,,1318,0
1620713848405,221170,,1413,0
1620713848405,221190,,1482,0
1620713848405,221210,,1499,0
1620713848405,221230,,1503,0
1620713848405,221250,,1481,0
1620713848405,221270,,1479,1
1620713848405,221290,,1472,1
1620713848405,221310,,1454,1
1620713848405,221330,,1433,1
1620713848405,221350,,1419,1
1620713848405,221370,,1406,1
1620713848405,221390,,1421,1
1620713856407,228973,,1584,1
1620713856407,228993,,1600,1
1620713856407,229013,,1593,1
1620713856407,229033,,1487,1
1620713856407,229053,,1483,1
1620713856407,229073,,1616,1
1620713856407,229093,,1874,1
1620713856407,229113,,2238,1
1620713856407,229133,,2549,1
1620713856407,229153,,2822,1
1620713856407,229173,,2909,1
1620713856407,229193,,2775,1
1620713856407,229213,,2522,1
1620713856407,229233,,2218,1
1620713856407,229253,,1909,1
1620713856407,229273,,1679,1
1620713856407,229293,,1487,1
1620713856407,229313,,1367,1
1620713856407,229333,,1317,1
1620713856407,229353,,1263,1
1620713856407,229373,,1358,1
1620713856407,229393,,1486,1
1620713856916,229414,,1579,1
1620713856916,229434,,1680,1
1620713856916,229454,,1681,1
1620713856916,229474,,1643,1
1620713856916,229494,,1591,1
1620713856916,229514,,1603,1
1620713856916,229534,,1499,1
1620713856916,229554,,1357,1
1620713856916,229574,,1296,1
1620713856916,229594,,1255,1
1620713856916,229614,,1278,1
1620713856916,229634,,1431,1
1620713856916,229654,,1714,1
1620713856916,229674,,2194,1
1620713856916,229694,,2682,1
1620713856916,229714,,3107,1
1620713856916,229734,,3343,1
1620713856916,229754,,3260,1
1620713856916,229774,,3007,1
1620713856916,229794,,2629,1
1620713856916,229814,,2243,1
1620713856916,229834,,1904,1
1620713856916,229854,,1575,1
1620713856916,229874,,1404,1
1620713856916,229894,,1303,1
1620713857401,229914,,1194,1
1620713857401,229934,,1265,1
1620713857401,229954,,1379,1
1620713857401,229974,,1535,1
1620713857401,229994,,1535,1
1620713857401,230014,,1495,1
1620713857401,230034,,1450,1
1620713857401,230054,,1410,1
1620713857401,230074,,1395,1
1620713857401,230094,,1419,1
1620713857401,230114,,1419,1
1620713857401,230134,,1408,1
1620713857401,230154,,1391,1
1620713857401,230175,,1366,1
1620713857401,230195,,1395,1
1620713857401,230215,,1488,1
1620713857401,230235,,1719,1
1620713857401,230255,,2065,1
1620713857401,230275,,2515,1
1620713857401,230295,,2979,1
1620713857401,230315,,3312,1
1620713857401,230335,,3371,1
1620713857401,230355,,3149,1
1620713857401,230375,,2758,1
1620713857401,230395,,2403,1
1620713857907,230415,,1971,1
1620713857907,230435,,1706,1
1620713857907,230455,,1535,1
1620713857907,230475,,1456,1
1620713857907,230495,,1360,1
1620713857907,230515,,1271,1
1620713857907,230535,,1230,1
1620713857907,230555,,1232,1
1620713857907,230575,,1239,1
1620713857907,230595,,1346,1
1620713857907,230615,,1410,1
1620713857907,230635,,1439,1
1620713857907,230655,,1446,1
1620713857907,230675,,1418,1
1620713857907,230695,,1478,1
1620713857907,230715,,1478,1
1620713857907,230735,,1455,1
1620713857907,230755,,1409,1
1620713857907,230775,,1344,1
1620713857907,230795,,1301,1
1620713857907,230815,,1306,1
1620713857907,230835,,1407,1
1620713857907,230855,,1649,1
1620713857907,230875,,2075,1
1620713857907,230895,,2511,1
1620713858400,230915,,2910,1
1620713858400,230935,,3255,1
1620713858400,230955,,3375,1
1620713858400,230975,,3245,0
1620713858400,230995,,2786,0
1620713858400,231015,,2327,0
1620713858400,231035,,1901,0
1620713858400,231055,,1571,0
1620713858400,231075,,1309,0
1620713858400,231095,,1168,0
1620713858400,231115,,1163,0
1620713858400,231135,,1190,0
1620713858400,231155,,1243,0
1620713858400,231175,,1308,0
1620713858400,231195,,1364,0
1620713858400,231215,,1468,0
1620713858400,231235,,1499,0
1620713858400,231255,,1499,0
1620713858400,231275,,1488,0
1620713858400,231295,,1463,0
1620713858400,231315,,1487,0
1620713858400,231335,,1473,0
1620713858400,231355,,1455,0
1620713858400,231375,,1408,0
1620713858400,231395,,1328,0
1620713858907,231415,,1262,0
1620713858907,231435,,1322,0
1620713858907,231455,,1483,0
1620713858907,231475,,1855,0
1620713858907,231495,,2122,0
1620713858907,231515,,2525,0
1620713858907,231535,,2822,0
1620713858907,231555,,2969,0
1620713858907,231575,,2908,0
1620713858907,231595,,2667,0
1620713858907,231615,,2401,0
1620713858907,231635,,2091,0
1620713858907,231655,,1791,0
1620713858907,231675,,1535,0
1620713858907,231695,,1373,0
1620713858907,231715,,1315,0
1620713858907,231735,,1312,0
1620713858907,231755,,1314,0
1620713858907,231775,,1344,0
1620713858907,231795,,1381,0
1620713858907,231816,,1422,0
1620713858907,231836,,1461,0
1620713858907,231856,,1461,0
1620713858907,231876,,1453,0
1620713858907,231896,,1438,0
1620713859407,231917,,1373,0
1620713859407,231937,,1428,0
1620713859407,231957,,1484,0
1620713859407,231977,,1531,0
1620713859407,231997,,1418,0
1620713859407,232017,,1334,0
1620713859407,232037,,1413,0
1620713859407,232057,,1633,0
1620713859407,232077,,2045,0
1620713859407,232097,,2517,0
1620713859407,232117,,2896,0
1620713859407,232137,,3377,0
1620713859407,232157,,3419,0
1620713859407,232177,,3116,0
1620713859407,232197,,2702,0
1620713859407,232217,,2268,0
1620713859407,232237,,1911,0
1620713859407,232257,,1611,0
1620713859407,232277,,1345,0
1620713859407,232297,,1200,0
1620713859407,232317,,1128,0
1620713859407,232337,,1189,0
1620713859407,232357,,1244,0
1620713859407,232377,,1318,0
1620713859407,232397,,1377,0
1620713859905,232417,,1362,0
1620713859905,232437,,1454,0
1620713859905,232457,,1535,0
1620713859905,232477,,1634,0
1620713859905,232497,,1568,0
1620713859905,232517,,1449,0
1620713859905,232537,,1415,0
1620713859905,232557,,1362,0
1620713859905,232577,,1289,0
1620713859905,232597,,1226,0
1620713859905,232617,,1234,0
1620713859905,232638,,1424,0
1620713859905,232658,,1809,0
1620713859905,232678,,2294,0
1620713859905,232698,,2822,0
1620713859905,232718,,3308,0
1620713859905,232738,,3686,0
1620713859905,232758,,3648,0
1620713859905,232778,,3237,0
1620713859905,232798,,2743,0
1620713859905,232818,,2289,0
1620713859905,232838,,1884,0
1620713859905,232858,,1535,0
1620713859905,232878,,1303,0
1620713859905,232898,,1165,0
1620713860403,232918,,1072,0
1620713860403,232938,,1164,0
1620713860403,232958,,1290,0
1620713860403,232978,,1467,0
1620713860403,232998,,1472,0
1620713860403,233018,,1455,0
1620713860403,233038,,1424,0
1620713860403,233058,,1446,0
1620713860403,233078,,1440,0
1620713860403,233098,,1431,0
1620713860403,233118,,1427,0
1620713860403,233138,,1404,0
1620713860403,233158,,1431,0
1620713860403,233178,,1392,0
1620713860403,233198,,1337,0
1620713860403,233218,,1311,0
1620713860403,233238,,1334,0
1620713860403,233258,,1600,0
1620713860403,233278,,1968,0
1620713860403,233298,,2411,0
1620713860403,233318,,2832,0
1620713860403,233338,,3142,0
1620713860403,233358,,3311,0
1620713860403,233378,,3127,0
1620713860403,233398,,2768,0
1620713860909,233418,,2318,0
1620713860909,233438,,1998,0
1620713860909,233459,,1759,0
1620713860909,233479,,1599,0
1620713860909,233499,,1371,0
1620713860909,233519,,1209,0
1620713860909,233539,,1127,0
1620713860909,233559,,1143,0
1620713860909,233579,,1219,0
1620713860909,233599,,1295,0
1620713860909,233619,,1362,0
1620713860909,233639,,1420,0
1620713860909,233659,,1469,0
1620713860909,233679,,1520,0
1620713860909,233699,,1534,0
1620713860909,233719,,1535,1
1620713860909,233739,,1526,1
1620713860909,233759,,1491,1
1620713860909,233779,,1454,1
1620713860909,233799,,1379,1
1620713860909,233819,,1327,1
1620713860909,233839,,1363,1
1620713860909,233859,,1558,1
1620713860909,233879,,1954,1
1620713860909,233899,,2403,1
1620713861410,233919,,2738,1
1620713861410,233939,,3103,1
1620713861410,233959,,3280,1
1620713861410,233979,,3220,1
1620713861410,233999,,2781,1
1620713861410,234019,,2334,1
1620713861410,234039,,1925,1
1620713861410,234059,,1584,1
1620713861410,234079,,1379,1
1620713861410,234099,,1262,1
1620713861410,234119,,1227,1
1620713861410,234139,,1254,1
1620713861410,234159,,1269,1
1620713861410,234179,,1340,1
1620713861410,234199,,1507,1
1620713861410,234219,,1613,1
1620713861410,234239,,1744,1
1620713861410,234259,,1678,1
1620713861410,234280,,1602,1
1620713861410,234300,,1492,1
1620713861410,234320,,1392,1
1620713861410,234340,,1296,1
1620713861410,234360,,1208,1
1620713861410,234380,,1265,1
1620713861410,234400,,1427,1
1620713861911,234420,,1661,1
1620713861911,234440,,2183,1
1620713861911,234460,,2679,1
1620713861911,234480,,3267,1
1620713861911,234500,,3407,1
1620713861911,234520,,3191,1
1620713861911,234540,,2815,1
1620713861911,234560,,2434,1
1620713861911,234580,,2017,1
1620713861911,234600,,1743,1
1620713861911,234620,,1566,1
1620713861911,234640,,1434,1
1620713861911,234660,,1424,1
1620713861911,234680,,1332,1
1620713861911,234700,,1296,1
1620713861911,234720,,1278,1
1620713861911,234740,,1296,1
1620713861911,234760,,1335,1
1620713861911,234780,,1373,1
1620713861911,234800,,1456,1
1620713861911,234820,,1488,1
1620713861911,234840,,1495,1
1620713861911,234860,,1479,1
1620713861911,234880,,1411,1
1620713861911,234900,,1406,1
1620713862409,234920,,1335,1
1620713862409,234940,,1511,1
1620713862409,234960,,1866,1
1620713862409,234980,,2423,1
1620713862409,235000,,2958,1
1620713862409,235020,,3501,1
1620713862409,235040,,3858,1
1620713862409,235060,,3874,1
1620713862409,235080,,3446,1
1620713862409,235100,,3002,1
1620713862409,235120,,2486,1
1620713862409,235140,,2015,1
1620713862409,235160,,1619,1
1620713862409,235180,,1326,1
1620713862409,235201,,1199,1
1620713862409,235221,,1151,1
1620713862409,235241,,1172,1
1620713862409,235261,,1231,1
1620713862409,235281,,1295,1
1620713862409,235301,,1418,1
1620713862409,235321,,1500,1
1620713862409,235341,,1561,1
1620713862409,235361,,1582,1
1620713862409,235381,,1563,1
1620713862409,235401,,1525,1
1620713862913,235421,,1414,1
1620713862913,235441,,1381,1
1620713862913,235461,,1368,1
1620713862913,235481,,1456,1
1620713862913,235501,,1535,1
1620713862913,235521,,1854,1
1620713862913,235541,,2257,1
1620713862913,235561,,2669,1
1620713862913,235581,,3091,1
1620713862913,235602,,3324,1
1620713862913,235622,,3285,1
1620713862913,235642,,2970,1
1620713862913,235662,,2598,1
1620713862913,235682,,2210,1
1620713862913,235702,,1855,1
1620713862913,235722,,1563,1
1620713862913,235742,,1355,1
1620713862913,235762,,1232,1
1620713862913,235782,,1186,1
1620713862913,235802,,1196,1
1620713862913,235822,,1301,1
1620713862913,235842,,1386,1
1620713862913,235862,,1440,1
1620713862913,235882,,1478,1
1620713862913,235902,,1462,1
1620713863412,235922,,1444,1
1620713863412,235942,,1499,1
1620713863412,235962,,1566,1
1620713863412,235982,,1616,1
1620713863412,236002,,1459,1
1620713863412,236022,,1361,1
1620713863412,236042,,1262,1
1620713863412,236062,,1264,1
1620713863412,236082,,1440,1
1620713863412,236102,,1745,1
1620713863412,236122,,2274,1
1620713863412,236142,,2735,1
1620713863412,236162,,3119,1
1620713863412,236182,,3282,1
1620713863412,236202,,3167,1
1620713863412,236222,,2866,1
1620713863412,236242,,2491,1
1620713863412,236262,,2118,1
1620713863412,236282,,1773,1
1620713863412,236302,,1515,1
1620713863412,236322,,1317,1
1620713863412,236342,,1232,1
1620713863412,236362,,1217,1
1620713863412,236382,,1248,1
1620713863412,236402,,1308,1
1620713863916,236423,,1319,1
1620713863916,236443,,1452,1
1620713863916,236463,,1575,1
1620713863916,236483,,1680,1
1620713863916,236503,,1616,1
1620713863916,236523,,1511,1
1620713863916,236543,,1453,1
1620713863916,236563,,1393,1
1620713863916,236583,,1354,1
1620713863916,236603,,1314,1
1620713863916,236623,,1254,1
1620713863916,236643,,1264,1
1620713863916,236663,,1312,1
1620713863916,236683,,1514,1
1620713863916,236703,,1840,1
1620713863916,236723,,2235,1
1620713863916,236743,,2653,1
1620713863916,236763,,2962,1
1620713863916,236783,,3083,1
1620713863916,236803,,2951,1
1620713863916,236823,,2624,1
1620713863916,236843,,2381,1
1620713863916,236863,,2031,1
1620713863916,236883,,1695,1
1620713863916,236903,,1433,1
1620713864418,236923,,1136,1
1620713864418,236943,,1241,1
1620713864418,236963,,1328,1
1620713864418,236983,,1466,1
1620713864418,237003,,1474,1
1620713864418,237023,,1405,1
1620713864418,237044,,1408,1
1620713864418,237064,,1408,1
1620713864418,237084,,1412,1
1620713864418,237104,,1425,1
1620713864418,237124,,1430,1
1620713864418,237144,,1460,1
1620713864418,237164,,1456,1
1620713864418,237184,,1399,1
1620713864418,237204,,1343,1
1620713864418,237224,,1340,1
1620713864418,237244,,1457,1
1620713864418,237264,,1743,1
1620713864418,237284,,2102,1
1620713864418,237304,,2469,1
1620713864418,237324,,2777,1
1620713864418,237344,,2957,1
1620713864418,237364,,2968,1
1620713864418,237384,,2762,1
1620713864418,237404,,2459,1
1620713864914,237425,,2077,1
1620713864914,237445,,1813,1
1620713864914,237465,,1645,1
1620713864914,237485,,1529,1
1620713864914,237505,,1362,1
1620713864914,237525,,1253,1
1620713864914,237545,,1204,1
1620713864914,237565,,1261,1
1620713864914,237585,,1313,1
1620713864914,237605,,1373,1
1620713864914,237625,,1422,1
1620713864914,237645,,1395,1
1620713864914,237665,,1466,1
1620713864914,237685,,1573,1
1620713864914,237705,,1616,1
1620713864914,237725,,1613,1
1620713864914,237745,,1597,1
1620713864914,237765,,1520,1
1620713864914,237785,,1370,1
1620713864914,237805,,1343,1
1620713864914,237825,,1495,1
1620713864914,237845,,1803,1
1620713864914,237865,,2258,1
1620713864914,237885,,2706,1
1620713864914,237905,,3037,1
1620713865470,237925,,3069,1
1620713865470,237945,,3132,1
1620713865470,237965,,2928,1
1620713865470,237985,,2654,1
1620713865470,238005,,2223,1
1620713865470,238025,,1804,1
1620713865470,238045,,1461,1
1620713865470,238065,,1263,1
1620713865470,238085,,1170,1
1620713865470,238105,,1157,1
1620713865470,238125,,1185,1
