localTime,remoteTime,label,bvp,signalOK
1620713768933,115584,,1776,0
1620713768933,115604,,1791,0
1620713768933,115624,,1773,0
1620713768933,115644,,1778,0
1620713768933,115664,,1919,0
1620713768933,115684,,1923,0
1620713768933,115704,,1875,0
1620713768933,115724,,1822,0
1620713768933,115744,,1744,0
1620713768933,115764,,1858,0
1620713768933,115784,,1872,0
1620713768933,115804,,1838,0
1620713768933,115825,,1792,0
1620713768933,115845,,1731,0
1620713768933,115865,,1847,0
1620713768933,115885,,1872,0
1620713768933,115905,,1827,0
1620713768933,115925,,1786,0
1620713768933,115945,,1717,0
1620713768933,115965,,1863,0
1620713768933,115985,,1958,0
1620713768933,116005,,2013,0
1620713768933,116025,,2076,0
1620713768933,116046,,2080,0
1620713768933,116066,,2227,0
1620713769441,116086,,2251,0
1620713769441,116106,,2313,0
1620713769441,116126,,2297,0
1620713769441,116146,,2242,0
1620713769441,116166,,2160,0
1620713769441,116186,,1998,0
1620713769441,116206,,1872,0
1620713769441,116226,,1789,0
1620713769441,116246,,1691,0
1620713769441,116267,,1774,0
1620713769441,116287,,1872,0
1620713769441,116307,,1871,0
1620713769441,116327,,1841,0
1620713769441,116347,,1775,0
1620713769441,116367,,1814,0
1620713769441,116387,,1933,0
1620713769441,116407,,1907,0
1620713769441,116427,,1854,0
1620713769441,116447,,1762,0
1620713769441,116467,,1759,0
1620713769441,116488,,1722,0
1620713769441,116508,,1697,0
1620713769441,116528,,1670,0
1620713769441,116548,,1620,0
1620713769441,116568,,1633,0
1620713769941,116588,,1674,0
1620713769941,116608,,1913,0
1620713769941,116628,,1947,0
1620713769941,116648,,1904,0
1620713769941,116668,,1776,0
1620713769941,116688,,1781,0
1620713769941,116709,,1712,0
1620713769941,116729,,1634,0
1620713769941,116749,,1569,0
1620713769941,116769,,1553,0
1620713769941,116789,,1682,0
1620713769941,116809,,1700,0
1620713769941,116829,,1662,0
1620713769941,116849,,1615,0
1620713769941,116869,,1562,0
1620713769941,116889,,1718,0
1620713769941,116909,,1797,0
1620713769941,116930,,1849,0
1620713769941,116950,,1915,0
1620713769941,116970,,2021,0
1620713769941,116990,,2134,0
1620713769941,117010,,2195,0
1620713769941,117030,,2215,0
1620713769941,117050,,2203,0
1620713769941,117070,,2112,0
1620713770455,117090,,2112,0
1620713770455,117110,,2288,0
1620713770455,117130,,2277,0
1620713770455,117151,,2246,0
1620713770455,117171,,2074,0
1620713770455,117191,,1923,0
1620713770455,117211,,1814,0
1620713770455,117231,,1747,0
1620713770455,117251,,1753,0
1620713770455,117271,,1750,0
1620713770455,117291,,1903,0
1620713770455,117311,,2045,0
1620713770455,117331,,2047,0
1620713770455,117351,,2010,0
1620713770455,117372,,1922,0
1620713770455,117392,,1966,0
1620713770455,117412,,2091,0
1620713770455,117432,,2102,0
1620713770455,117452,,2129,0
1620713770455,117472,,2146,0
1620713770455,117492,,2274,0
1620713770455,117512,,2498,0
1620713770455,117532,,2543,0
1620713770455,117552,,2526,0
1620713770455,117572,,2439,0
1620713770974,117592,,2420,0
1620713770974,117612,,2481,0
1620713770974,117632,,2533,0
1620713770974,117652,,2543,0
1620713770974,117672,,2432,0
1620713770974,117692,,2256,0
1620713770974,117712,,2215,0
1620713770974,117732,,2096,0
1620713770974,117752,,1974,0
1620713770974,117772,,1895,0
1620713770974,117792,,1811,0
1620713770974,117813,,1941,0
1620713770974,117833,,1961,0
1620713770974,117853,,1927,0
1620713770974,117873,,1866,0
1620713770974,117893,,1779,0
1620713770974,117913,,1875,0
1620713770974,117933,,1938,0
1620713770974,117953,,1975,0
1620713770974,117973,,2031,0
1620713770974,117993,,2064,0
1620713770974,118013,,2197,0
1620713770974,118034,,2317,0
1620713770974,118054,,2351,0
1620713770974,118074,,2387,0
1620713771480,118094,,2190,1
1620713771480,118114,,2061,1
1620713771480,118134,,2056,1
1620713771480,118154,,2030,1
1620713771480,118174,,1988,1
1620713771480,118194,,1975,1
1620713771480,118214,,1946,1
1620713771480,118234,,1918,1
1620713771480,118255,,1898,1
1620713771480,118275,,1958,1
1620713771480,118295,,1843,1
1620713771480,118315,,1857,1
1620713771480,118335,,1915,1
1620713771480,118355,,1893,1
1620713771480,118375,,1859,1
1620713771480,118395,,1786,1
1620713771480,118415,,1830,1
1620713771480,118435,,1959,1
1620713771480,118455,,1959,1
1620713771480,118476,,1914,1
1620713771480,118496,,1846,1
1620713771480,118516,,1861,1
1620713771480,118536,,1855,1
1620713771480,118556,,1857,1
1620713771480,118576,,1859,1
1620713771943,118596,,1812,1
1620713771943,118616,,1893,1
1620713771943,118636,,1983,1
1620713771943,118656,,2064,1
1620713771943,118676,,2098,1
1620713771943,118697,,2059,1
1620713771943,118717,,1934,1
1620713771943,118737,,1947,1
1620713771943,118757,,1871,1
1620713771943,118777,,1776,1
1620713771943,118797,,1695,1
1620713771943,118817,,1683,1
1620713771943,118837,,1873,1
1620713771943,118857,,1989,1
1620713771943,118877,,2055,1
1620713771943,118897,,2087,1
1620713771943,118918,,2060,1
1620713771943,118938,,2185,1
1620713771943,118958,,2181,1
1620713771943,118978,,2109,1
1620713771943,118998,,2021,1
1620713771943,119018,,1879,1
1620713771943,119038,,1937,1
1620713771943,119058,,1942,1
1620713771943,119078,,1887,1
1620713772447,119099,,1775,1
1620713772447,119119,,1808,1
1620713772447,119140,,1899,1
1620713772447,119160,,1937,1
1620713772447,119180,,1870,1
1620713772447,119200,,1805,1
1620713772447,119220,,1696,1
1620713772447,119240,,1784,1
1620713772447,119260,,1842,1
1620713772447,119280,,1812,1
1620713772447,119300,,1774,1
1620713772447,119320,,1680,1
1620713772447,119340,,1754,1
1620713772447,119361,,1823,1
1620713772447,119381,,1787,1
1620713772447,119401,,1719,1
1620713772447,119421,,1666,1
1620713772447,119441,,1683,1
1620713772447,119461,,1686,1
1620713772447,119481,,1693,1
1620713772447,119501,,1707,1
1620713772447,119521,,1666,1
1620713772447,119541,,1708,1
1620713772447,119561,,1844,1
1620713772447,119582,,1824,1
1620713772947,119602,,1711,1
1620713772947,119622,,1730,1
1620713772947,119642,,1765,1
1620713772947,119662,,1841,1
1620713772947,119682,,1777,1
1620713772947,119702,,1693,1
1620713772947,119722,,1597,1
1620713772947,119742,,1619,1
1620713772947,119762,,1648,1
1620713772947,119782,,1714,1
1620713772947,119803,,1839,1
1620713772947,119823,,1941,1
1620713772947,119843,,2112,1
1620713772947,119863,,2198,1
1620713772947,119883,,2227,1
1620713772947,119903,,2219,1
1620713772947,119923,,2144,1
1620713772947,119943,,2067,1
1620713772947,119963,,2077,1
1620713772947,119983,,2093,1
1620713772947,120003,,2095,1
1620713772947,120024,,2064,1
1620713772947,120044,,2083,0
1620713772947,120064,,1977,0
1620713772947,120084,,1866,0
1620713773450,120104,,1731,0
1620713773450,120124,,1763,0
1620713773450,120144,,1843,0
1620713773450,120164,,1952,0
1620713773450,120184,,1969,0
1620713773450,120204,,1911,0
1620713773450,120224,,1847,0
1620713773450,120245,,1745,0
1620713773450,120265,,1787,0
1620713773450,120285,,1854,0
1620713773450,120305,,1906,0
1620713773450,120325,,1979,0
1620713773450,120345,,1840,0
1620713773450,120365,,1791,0
1620713773450,120385,,1789,0
1620713773450,120405,,1794,0
1620713773450,120425,,1865,0
1620713773450,120445,,1766,0
1620713773450,120466,,1695,0
1620713773450,120486,,1750,0
1620713773450,120506,,1790,0
1620713773450,120526,,1867,0
1620713773450,120546,,1777,0
1620713773450,120566,,1749,0
1620713773450,120586,,1801,0
1620713773953,120606,,1698,0
1620713773953,120626,,1737,0
1620713773953,120646,,1787,0
1620713773953,120666,,1833,0
1620713773953,120687,,1917,0
1620713773953,120707,,1867,0
1620713773953,120727,,1815,0
1620713773953,120747,,1767,0
1620713773953,120767,,1817,0
1620713773953,120787,,1858,0
1620713773953,120807,,1907,0
1620713773953,120827,,2014,0
1620713773953,120847,,2109,0
1620713773953,120867,,2244,0
1620713773953,120887,,2471,0
1620713773953,120908,,2556,0
1620713773953,120928,,2522,0
1620713773953,120948,,2422,0
1620713773953,120968,,2309,0
1620713773953,120988,,2355,0
1620713773953,121008,,2298,0
1620713773953,121028,,2198,0
1620713773953,121048,,2111,0
1620713773953,121068,,1999,0
1620713773953,121088,,2087,0
1620713774454,121108,,2053,0
1620713774454,121129,,2110,0
1620713774454,121149,,2160,0
1620713774454,121169,,2205,0
1620713774454,121189,,2177,0
1620713774454,121209,,2105,0
1620713774454,121229,,2033,0
1620713774454,121249,,1994,0
1620713774454,121269,,1978,0
1620713774454,121289,,2026,0
1620713774454,121309,,2033,0
1620713774454,121329,,2031,0
1620713774454,121350,,2019,0
1620713774454,121370,,2000,0
1620713774454,121390,,2007,0
1620713774454,121410,,1997,0
1620713774454,121430,,1971,0
1620713774454,121450,,1954,0
1620713774454,121470,,1936,0
1620713774454,121490,,1959,0
1620713774454,121510,,1957,0
1620713774454,121530,,1950,0
1620713774454,121550,,1946,0
1620713774454,121571,,1935,0
1620713774454,121591,,1973,0
1620713774956,121611,,1936,0
1620713774956,121631,,2021,0
1620713774956,121651,,2160,0
1620713774956,121671,,2190,0
1620713774956,121691,,2191,0
1620713774956,121711,,2238,0
1620713774956,121731,,2162,0
1620713774956,121751,,2064,0
1620713774956,121771,,1962,0
1620713774956,121792,,1975,0
1620713774956,121812,,2001,0
1620713774956,121832,,2073,0
1620713774956,121852,,2173,0
1620713774956,121872,,2259,0
1620713774956,121892,,2406,0
1620713774956,121912,,2480,0
1620713774956,121932,,2494,0
1620713774956,121952,,2464,0
1620713774956,121972,,2386,0
1620713774956,121992,,2301,0
1620713774956,122013,,2306,0
1620713774956,122033,,2315,0
1620713774956,122053,,2298,0
1620713774956,122073,,2251,0
1620713774956,122093,,2243,0
1620713775458,122113,,2039,0
1620713775458,122133,,1975,0
1620713775458,122153,,1995,0
1620713775458,122173,,2014,0
1620713775458,122193,,1986,0
1620713775458,122213,,1962,0
1620713775458,122234,,1931,0
1620713775458,122254,,1907,0
1620713775458,122274,,1903,0
1620713775458,122294,,1894,0
1620713775458,122314,,1919,0
1620713775458,122334,,1917,0
1620713775458,122354,,1895,0
1620713775458,122374,,1872,0
1620713775458,122394,,1843,0
1620713775458,122414,,1857,0
1620713775458,122434,,1855,0
1620713775458,122455,,1840,0
1620713775458,122475,,1830,0
1620713775458,122495,,1821,0
1620713775458,122515,,1869,0
1620713775458,122535,,1885,0
1620713775458,122555,,1890,0
1620713775458,122575,,1885,0
1620713775458,122595,,1868,0
1620713775963,122615,,1819,0
1620713775963,122635,,1859,0
1620713775963,122655,,1951,0
1620713775963,122676,,1984,0
1620713775963,122696,,1872,0
1620713775963,122716,,1857,0
1620713775963,122736,,1817,0
1620713775963,122756,,1815,0
1620713775963,122776,,1877,0
1620713775963,122796,,1978,0
1620713775963,122816,,2162,0
1620713775963,122836,,2289,0
1620713775963,122856,,2370,0
1620713775963,122876,,2394,0
1620713775963,122897,,2350,0
1620713775963,122917,,2335,0
1620713775963,122937,,2271,0
1620713775963,122957,,2207,0
1620713775963,122977,,2139,0
1620713775963,122997,,2054,0
1620713775963,123017,,2059,0
1620713775963,123037,,2021,0
1620713775963,123057,,1982,0
1620713775963,123077,,1950,0
1620713775963,123097,,1918,0
1620713776462,123117,,1847,0
1620713776462,123137,,1927,0
1620713776462,123157,,1999,0
1620713776462,123177,,2111,0
1620713776462,123197,,2045,0
1620713776462,123217,,1980,0
1620713776462,123237,,1922,0
1620713776462,123257,,1858,0
1620713776462,123277,,1812,0
1620713776462,123297,,1792,0
1620713776462,123317,,1783,0
1620713776462,123338,,1751,0
1620713776462,123358,,1801,0
1620713776462,123378,,1910,0
1620713776462,123398,,1968,0
1620713776462,123418,,1841,0
1620713776462,123438,,1813,0
1620713776462,123458,,1819,0
1620713776462,123478,,1830,0
1620713776462,123498,,1827,0
1620713776462,123518,,1865,0
1620713776462,123538,,1870,0
1620713776462,123559,,1787,0
1620713776462,123579,,1712,0
1620713776462,123599,,1675,0
1620713776964,123619,,1603,0
1620713776964,123639,,1668,0
1620713776964,123659,,1786,0
1620713776964,123679,,1870,0
1620713776964,123699,,1825,0
1620713776964,123719,,1733,0
1620713776964,123739,,1723,0
1620713776964,123759,,1714,0
1620713776964,123780,,1762,0
1620713776964,123800,,1856,0
1620713776964,123820,,1974,0
1620713776964,123840,,2162,1
1620713776964,123860,,2284,1
1620713776964,123880,,2349,1
1620713776964,123900,,2381,1
1620713776964,123920,,2359,1
1620713776964,123940,,2399,1
1620713776964,123960,,2379,1
1620713776964,123980,,2294,1
1620713776964,124001,,2139,1
1620713776964,124021,,1906,1
1620713776964,124041,,1729,1
1620713776964,124061,,1578,1
1620713776964,124081,,1481,1
1620713776964,124101,,1466,1
1620713777468,124122,,1467,1
1620713777468,124142,,1648,1
1620713777468,124162,,1867,1
1620713777468,124182,,2043,1
1620713777468,124202,,2082,1
1620713777468,124223,,2054,1
1620713777468,124243,,2025,1
1620713777468,124263,,1979,1
1620713777468,124283,,1918,1
1620713777468,124303,,1862,1
1620713777468,124323,,1808,1
1620713777468,124343,,1802,1
1620713777468,124363,,1797,1
1620713777468,124383,,1780,1
1620713777468,124403,,1761,1
1620713777468,124423,,1753,1
1620713777468,124444,,1750,1
1620713777468,124464,,1792,1
1620713777468,124484,,1795,1
1620713777468,124504,,1791,1
1620713777468,124524,,1787,1
1620713777468,124544,,1776,1
1620713777468,124564,,1799,1
1620713777468,124584,,1801,1
1620713777468,124604,,1797,1
1620713777972,124625,,1714,1
1620713777972,124645,,1755,1
1620713777972,124666,,1839,1
1620713777972,124686,,1872,1
1620713777972,124706,,1808,1
1620713777972,124726,,1737,1
1620713777972,124746,,1727,1
1620713777972,124766,,1831,1
1620713777972,124786,,1965,1
1620713777972,124806,,2109,1
1620713777972,124826,,2224,1
1620713777972,124846,,2265,1
1620713777972,124866,,2309,1
1620713777972,124887,,2267,1
1620713777972,124907,,2182,1
1620713777972,124927,,2083,1
1620713777972,124947,,1970,1
1620713777972,124967,,1939,1
1620713777972,124987,,1882,1
1620713777972,125007,,1837,1
1620713777972,125027,,1823,1
1620713777972,125047,,1847,1
1620713777972,125067,,1968,1
1620713777972,125087,,2065,1
1620713777972,125108,,2173,1
1620713778473,125128,,2214,1
1620713778473,125148,,2363,1
1620713778473,125168,,2511,1
1620713778473,125188,,2597,1
1620713778473,125208,,2517,1
1620713778473,125228,,2422,1
1620713778473,125248,,2307,1
1620713778473,125268,,2245,1
1620713778473,125288,,2110,1
1620713778473,125308,,1909,1
1620713778473,125329,,1645,1
1620713778473,125349,,1401,1
1620713778473,125369,,1296,1
1620713778473,125389,,1328,1
1620713778473,125409,,1317,1
1620713778473,125429,,1281,1
1620713778473,125449,,1307,1
1620713778473,125469,,1393,1
1620713778473,125489,,1504,1
1620713778473,125509,,1577,1
1620713778473,125529,,1612,1
1620713778473,125550,,1609,1
1620713778473,125570,,1525,1
1620713778473,125590,,1535,1
1620713778473,125610,,1565,1
1620713778981,125630,,1585,1
1620713778981,125650,,1643,1
1620713778981,125670,,1762,1
1620713778981,125690,,1919,1
1620713778981,125710,,1991,1
1620713778981,125730,,2043,1
1620713778981,125750,,2087,1
1620713778981,125771,,2096,1
1620713778981,125791,,2134,1
1620713778981,125811,,2134,1
1620713778981,125831,,2113,1
1620713778981,125851,,2086,1
1620713778981,125871,,2023,1
1620713778981,125891,,2019,1
1620713778981,125911,,1970,1
1620713778981,125931,,1919,1
1620713778981,125951,,1888,1
1620713778981,125971,,1849,1
1620713778981,125992,,1904,1
1620713778981,126012,,1942,1
1620713778981,126032,,1996,1
1620713778981,126052,,2063,1
1620713778981,126072,,2068,1
1620713778981,126092,,2139,1
1620713778981,126112,,2125,1
1620713779478,126133,,1997,1
1620713779478,126153,,2001,1
1620713779478,126173,,2029,1
1620713779478,126193,,2113,1
1620713779478,126214,,2082,1
1620713779478,126234,,2014,1
1620713779478,126254,,1971,1
1620713779478,126274,,1907,1
1620713779478,126294,,1886,1
1620713779478,126314,,1938,1
1620713779478,126334,,1995,1
1620713779478,126354,,2013,1
1620713779478,126374,,2003,1
1620713779478,126394,,2053,1
1620713779478,126414,,1965,1
1620713779478,126435,,1851,1
1620713779478,126455,,1766,1
1620713779478,126475,,1711,1
1620713779478,126495,,1710,1
1620713779478,126515,,1722,1
1620713779478,126535,,1744,1
1620713779478,126555,,1776,1
1620713779478,126575,,1808,1
1620713779478,126595,,1830,1
1620713779478,126615,,1863,1
1620713779981,126635,,1814,1
1620713779981,126656,,1922,1
1620713779981,126676,,2117,1
1620713779981,126696,,2294,0
1620713779981,126716,,2393,0
1620713779981,126736,,2427,0
1620713779981,126756,,2427,0
1620713779981,126776,,2400,0
1620713779981,126796,,2351,0
1620713779981,126816,,2340,0
1620713779981,126836,,2304,0
1620713779981,126856,,2276,0
1620713779981,126877,,2256,0
1620713779981,126897,,2229,0
1620713779981,126917,,2239,0
1620713779981,126937,,2221,0
1620713779981,126957,,2192,0
1620713779981,126977,,2166,0
1620713779981,126997,,2126,0
1620713779981,127017,,2153,0
1620713779981,127037,,2157,0
1620713779981,127057,,2147,0
1620713779981,127077,,2132,0
1620713779981,127098,,2094,0
1620713779981,127118,,2101,0
1620713780483,127138,,1985,0
1620713780483,127158,,1980,0
1620713780483,127178,,2015,0
1620713780483,127198,,1999,0
1620713780483,127218,,1950,0
1620713780483,127238,,1847,0
1620713780483,127258,,1763,0
1620713780483,127278,,1699,0
1620713780483,127298,,1646,0
1620713780483,127319,,1675,0
1620713780483,127339,,1691,0
1620713780483,127359,,1700,0
1620713780483,127379,,1705,0
1620713780483,127399,,1682,0
1620713780483,127419,,1722,0
1620713780483,127439,,1728,0
1620713780483,127459,,1721,0
1620713780483,127479,,1715,0
1620713780483,127499,,1712,0
1620713780483,127519,,1727,0
1620713780483,127540,,1743,0
1620713780483,127560,,1745,0
1620713780483,127580,,1763,0
1620713780483,127600,,1823,0
1620713780483,127620,,1930,0
1620713780986,127640,,1987,0
1620713780986,127660,,2131,0
1620713780986,127680,,2289,0
1620713780986,127700,,2370,1
1620713780986,127721,,2291,1
1620713780986,127741,,2224,1
1620713780986,127762,,2110,1
1620713780986,127782,,2015,1
1620713780986,127802,,1937,1
1620713780986,127822,,1875,1
1620713780986,127842,,1873,1
1620713780986,127862,,1860,1
1620713780986,127882,,1845,1
1620713780986,127902,,1835,1
1620713780986,127922,,1827,1
1620713780986,127942,,1870,1
1620713780986,127962,,1892,1
1620713780986,127983,,1895,1
1620713780986,128003,,1879,1
1620713780986,128023,,1849,1
1620713780986,128043,,1855,1
1620713780986,128063,,1823,1
1620713780986,128083,,1791,1
1620713780986,128103,,1769,1
1620713780986,128123,,1726,1
1620713781489,128143,,1681,1
1620713781489,128163,,1734,1
1620713781489,128183,,1830,1
1620713781489,128204,,1867,1
1620713781489,128224,,1733,1
1620713781489,128244,,1632,1
1620713781489,128264,,1506,1
1620713781489,128284,,1424,1
1620713781489,128304,,1391,1
1620713781489,128324,,1354,1
1620713781489,128344,,1409,1
1620713781489,128364,,1449,1
1620713781489,128384,,1487,1
1620713781489,128404,,1516,1
1620713781489,128425,,1509,1
1620713781489,128445,,1584,1
1620713781489,128465,,1614,1
1620713781489,128485,,1635,1
1620713781489,128505,,1695,1
1620713781489,128525,,1760,1
1620713781489,128545,,1913,1
1620713781489,128565,,2044,1
1620713781489,128585,,2135,1
1620713781489,128605,,2178,1
1620713781489,128625,,2160,1
1620713781991,128645,,2065,1
1620713781991,128665,,2065,1
1620713781991,128685,,2090,1
1620713781991,128705,,2096,0
1620713781991,128725,,1989,0
1620713781991,128745,,1870,0
1620713781991,128765,,1790,0
1620713781991,128785,,1712,0
1620713781991,128805,,1669,0
1620713781991,128825,,1658,0
1620713781991,128845,,1670,0
1620713781991,128866,,1719,0
1620713781991,128886,,1745,0
1620713781991,128906,,1760,0
1620713781991,128926,,1770,0
1620713781991,128946,,1758,0
1620713781991,128966,,1772,0
1620713781991,128986,,1755,0
1620713781991,129006,,1726,0
1620713781991,129026,,1690,0
1620713781991,129046,,1650,0
1620713781991,129066,,1664,0
1620713781991,129087,,1655,0
1620713781991,129107,,1648,0
1620713781991,129127,,1643,0
1620713782491,129147,,1573,0
1620713782491,129167,,1631,0
1620713782491,129187,,1721,0
1620713782491,129207,,1799,0
1620713782491,129227,,1751,0
1620713782491,129247,,1650,0
1620713782491,129267,,1635,0
1620713782491,129287,,1613,0
1620713782491,129308,,1601,0
1620713782491,129328,,1607,0
1620713782491,129348,,1577,0
1620713782491,129368,,1627,0
1620713782491,129388,,1638,0
1620713782491,129408,,1638,0
1620713782491,129428,,1642,0
1620713782491,129448,,1616,0
1620713782491,129468,,1677,0
1620713782491,129488,,1755,0
1620713782491,129508,,1854,0
1620713782491,129529,,1974,0
1620713782491,129549,,2080,0
1620713782491,129569,,2218,0
1620713782491,129589,,2304,0
1620713782491,129609,,2304,0
1620713782491,129629,,2252,0
1620713782996,129649,,2117,0
1620713782996,129669,,2087,0
1620713782996,129689,,2117,0
1620713782996,129709,,2126,0
1620713782996,129729,,2041,0
1620713782996,129750,,1937,0
1620713782996,129770,,1855,0
1620713782996,129790,,1772,0
1620713782996,129810,,1670,0
1620713782996,129830,,1597,0
1620713782996,129850,,1571,0
1620713782996,129870,,1580,0
1620713782996,129890,,1631,0
1620713782996,129910,,1663,0
1620713782996,129930,,1680,0
1620713782996,129950,,1687,0
1620713782996,129971,,1669,0
1620713782996,129991,,1681,0
1620713782996,130011,,1655,0
1620713782996,130031,,1613,0
1620713782996,130051,,1569,0
1620713782996,130071,,1519,0
1620713782996,130091,,1532,0
1620713782996,130111,,1527,0
1620713782996,130131,,1523,0
1620713783497,130152,,1457,0
1620713783497,130172,,1520,0
1620713783497,130193,,1626,0
1620713783497,130213,,1684,0
1620713783497,130233,,1642,0
1620713783497,130253,,1558,0
1620713783497,130273,,1459,0
1620713783497,130293,,1446,0
1620713783497,130313,,1419,0
1620713783497,130333,,1402,0
1620713783497,130353,,1398,0
1620713783497,130373,,1376,0
1620713783497,130393,,1430,0
1620713783497,130414,,1456,0
1620713783497,130434,,1472,0
1620713783497,130454,,1482,0
1620713783497,130474,,1456,0
1620713783497,130494,,1495,0
1620713783497,130514,,1668,0
1620713783497,130534,,1861,0
1620713783497,130554,,2061,0
1620713783497,130574,,2233,0
1620713783497,130594,,2391,0
1620713783497,130614,,2367,0
1620713783497,130635,,2278,0
1620713784000,130655,,2109,0
1620713784000,130675,,2064,0
1620713784000,130695,,2083,0
1620713784000,130715,,2097,0
1620713784000,130735,,1999,0
1620713784000,130755,,1896,0
1620713784000,130775,,1801,0
1620713784000,130795,,1770,0
1620713784000,130815,,1798,0
1620713784000,130835,,1826,0
1620713784000,130856,,1867,0
1620713784000,130876,,1907,0
1620713784000,130896,,1936,0
1620713784000,130916,,1993,0
1620713784000,130936,,2000,0
1620713784000,130956,,1983,0
1620713784000,130976,,1944,0
1620713784000,130996,,1887,0
1620713784000,131016,,1853,0
1620713784000,131036,,1811,0
1620713784000,131056,,1790,0
1620713784000,131077,,1777,0
1620713784000,131097,,1760,0
1620713784000,131117,,1765,0
1620713784000,131137,,1744,0
1620713784510,131157,,1665,0
1620713784510,131177,,1710,0
1620713784510,131197,,1768,0
1620713784510,131217,,1854,0
1620713784510,131237,,1804,0
1620713784510,131257,,1742,0
1620713784510,131277,,1707,0
1620713784510,131298,,1683,0
1620713784510,131318,,1750,0
1620713784510,131338,,1796,0
1620713784510,131358,,1840,0
1620713784510,131378,,1877,0
1620713784510,131398,,1914,0
1620713784510,131418,,2038,0
1620713784510,131438,,2175,0
1620713784510,131458,,2305,0
1620713784510,131478,,2417,0
1620713784510,131498,,2470,0
1620713784510,131519,,2566,0
1620713784510,131539,,2559,0
1620713784510,131559,,2511,0
1620713784510,131579,,2439,0
1620713784510,131599,,2333,0
1620713784510,131619,,2317,0
1620713784510,131639,,2274,0
1620713785004,131659,,2162,0
1620713785004,131679,,2192,0
1620713785004,131699,,2265,0
1620713785004,131719,,2375,0
1620713785004,131740,,2359,0
1620713785004,131760,,2315,0
1620713785004,131780,,2278,0
1620713785004,131800,,2261,0
1620713785004,131820,,2288,0
1620713785004,131840,,2294,0
1620713785004,131860,,2263,0
1620713785004,131880,,2203,0
1620713785004,131900,,2128,0
1620713785004,131920,,2054,0
1620713785004,131940,,2009,0
1620713785004,131961,,1979,0
1620713785004,131981,,1970,0
1620713785004,132001,,1968,0
1620713785004,132021,,1961,0
1620713785004,132041,,1955,0
1620713785004,132061,,1923,0
1620713785004,132081,,1882,0
1620713785004,132101,,1846,0
1620713785004,132121,,1796,0
1620713785004,132141,,1794,0
1620713785507,132161,,1707,0
1620713785507,132182,,1744,0
1620713785507,132202,,1833,0
1620713785507,132222,,1854,0
1620713785507,132242,,1811,0
1620713785507,132262,,1729,0
1620713785507,132282,,1664,0
1620713785507,132302,,1621,0
1620713785507,132322,,1583,0
1620713785507,132342,,1663,0
1620713785507,132362,,1728,0
1620713785507,132382,,1808,0
1620713785507,132403,,1933,0
1620713785507,132423,,2021,0
1620713785507,132443,,2222,1
1620713785507,132463,,2335,0
1620713785507,132483,,2384,0
1620713785507,132503,,2382,0
1620713785507,132523,,2301,0
1620713785507,132543,,2276,0
1620713785507,132563,,2204,0
1620713785507,132583,,2135,0
1620713785507,132603,,2095,0
1620713785507,132624,,2026,0
1620713785507,132644,,2055,0
1620713786010,132664,,1983,0
1620713786010,132684,,2023,0
1620713786010,132704,,2147,0
1620713786010,132724,,2210,0
1620713786010,132744,,2246,0
1620713786010,132764,,2253,0
1620713786010,132784,,2237,0
1620713786010,132804,,2219,0
1620713786010,132824,,2189,0
1620713786010,132845,,2182,0
1620713786010,132865,,2160,0
1620713786010,132885,,2121,0
1620713786010,132905,,2064,0
1620713786010,132925,,2000,0
1620713786010,132945,,1978,0
1620713786010,132965,,1977,0
1620713786010,132985,,1959,0
1620713786010,133005,,1938,0
1620713786010,133025,,1923,0
1620713786010,133045,,1909,0
1620713786010,133066,,1929,0
1620713786010,133086,,1924,0
1620713786010,133106,,1914,0
1620713786010,133126,,1904,0
1620713786010,133146,,1872,0
1620713786518,133166,,1815,0
1620713786518,133186,,1857,0
1620713786518,133206,,1933,0
1620713786518,133226,,2005,0
1620713786518,133246,,1955,0
1620713786518,133266,,1926,0
1620713786518,133287,,1875,0
1620713786518,133307,,1839,0
1620713786518,133327,,1809,0
1620713786518,133347,,1776,0
1620713786518,133367,,1809,0
1620713786518,133387,,1825,0
1620713786518,133407,,1863,0
1620713786518,133427,,1946,0
1620713786518,133447,,2032,0
1620713786518,133467,,2173,1
1620713786518,133487,,2262,1
1620713786518,133508,,2301,0
1620713786518,133528,,2288,0
1620713786518,133548,,2218,0
1620713786518,133568,,2176,0
1620713786518,133588,,2096,0
1620713786518,133608,,2000,0
1620713786518,133628,,1905,0
1620713786518,133648,,1783,0
1620713787017,133669,,1683,0
1620713787017,133689,,1695,0
1620713787017,133709,,1771,0
1620713787017,133730,,1839,0
1620713787017,133750,,1776,0
1620713787017,133770,,1792,0
1620713787017,133790,,1797,0
1620713787017,133810,,1791,0
1620713787017,133830,,1787,0
1620713787017,133850,,1751,0
1620713787017,133870,,1777,0
1620713787017,133890,,1779,0
1620713787017,133910,,1773,0
1620713787017,133930,,1763,0
1620713787017,133951,,1744,0
1620713787017,133971,,1749,0
1620713787017,133991,,1761,0
1620713787017,134011,,1755,0
1620713787017,134031,,1755,0
1620713787017,134051,,1751,0
1620713787017,134071,,1773,0
1620713787017,134091,,1794,0
1620713787017,134111,,1794,0
1620713787017,134131,,1781,0
1620713787017,134151,,1774,0
1620713787529,134172,,1685,0
1620713787529,134192,,1731,0
1620713787529,134212,,1742,0
1620713787529,134232,,1885,0
1620713787529,134252,,1843,0
1620713787529,134272,,1775,0
1620713787529,134292,,1769,0
1620713787529,134312,,1797,0
1620713787529,134332,,1870,0
1620713787529,134352,,1963,0
1620713787529,134372,,2045,0
1620713787529,134393,,2156,0
1620713787529,134413,,2185,0
1620713787529,134433,,2160,0
1620713787529,134453,,2109,0
1620713787529,134473,,2029,0
1620713787529,134493,,2000,0
1620713787529,134513,,1947,1
1620713787529,134533,,1893,1
1620713787529,134553,,1846,1
1620713787529,134573,,1764,1
1620713787529,134593,,1789,1
1620713787529,134614,,1778,1
1620713787529,134634,,1762,1
1620713787529,134654,,1754,1
1620713788019,134674,,1687,1
1620713788019,134694,,1740,1
1620713788019,134714,,1843,1
1620713788019,134734,,1914,1
1620713788019,134754,,1872,1
1620713788019,134774,,1759,1
1620713788019,134794,,1739,1
1620713788019,134814,,1697,1
1620713788019,134835,,1648,1
1620713788019,134855,,1622,1
1620713788019,134875,,1584,1
1620713788019,134895,,1623,1
1620713788019,134915,,1648,1
1620713788019,134935,,1663,1
1620713788019,134955,,1673,1
1620713788019,134975,,1677,1
1620713788019,134995,,1709,1
1620713788019,135015,,1723,1
1620713788019,135035,,1718,1
1620713788019,135056,,1710,1
1620713788019,135076,,1680,1
1620713788019,135096,,1678,1
1620713788019,135116,,1686,1
1620713788019,135136,,1695,1
1620713788019,135156,,1695,1
1620713788523,135176,,1615,1
1620713788523,135196,,1651,1
1620713788523,135216,,1751,1
1620713788523,135236,,1825,1
1620713788523,135256,,1809,1
1620713788523,135277,,1808,1
1620713788523,135297,,1853,1
1620713788523,135317,,1954,1
1620713788523,135337,,2053,1
1620713788523,135357,,2110,1
1620713788523,135377,,2131,0
1620713788523,135397,,2113,0
1620713788523,135417,,2105,0
1620713788523,135437,,2063,0
1620713788523,135457,,2001,0
1620713788523,135477,,1964,0
1620713788523,135498,,1919,0
1620713788523,135518,,1975,0
1620713788523,135538,,2004,0
1620713788523,135558,,2026,0
1620713788523,135578,,2045,0
1620713788523,135598,,2045,0
1620713788523,135618,,2112,0
1620713788523,135638,,2143,0
1620713788523,135658,,2156,0
1620713789032,135679,,2069,0
1620713789032,135699,,2067,0
1620713789032,135720,,2096,0
1620713789032,135740,,2096,0
1620713789032,135760,,1981,0
1620713789032,135780,,1850,0
1620713789032,135800,,1721,0
1620713789032,135820,,1693,0
1620713789032,135840,,1663,0
1620713789032,135860,,1646,0
1620713789032,135880,,1645,0
1620713789032,135900,,1626,0
1620713789032,135920,,1680,0
1620713789032,135941,,1717,0
1620713789032,135961,,1735,0
1620713789032,135981,,1744,0
1620713789032,136001,,1732,0
1620713789032,136021,,1773,0
1620713789032,136041,,1790,0
1620713789032,136061,,1776,0
1620713789032,136081,,1758,0
1620713789032,136101,,1741,0
1620713789032,136121,,1749,0
1620713789032,136141,,1775,0
1620713789032,136162,,1769,0
1620713789536,136182,,1694,0
1620713789536,136202,,1743,0
1620713789536,136222,,1814,0
1620713789536,136242,,1862,0
1620713789536,136262,,1905,0
1620713789536,136282,,2031,0
1620713789536,136302,,2043,0
1620713789536,136322,,2055,0
1620713789536,136342,,2118,0
1620713789536,136362,,2151,0
1620713789536,136383,,2173,1
1620713789536,136403,,2171,1
1620713789536,136423,,2132,1
1620713789536,136443,,2111,1
1620713789536,136463,,2055,1
1620713789536,136483,,1995,1
1620713789536,136503,,1952,1
1620713789536,136523,,1898,1
1620713789536,136543,,1894,1
1620713789536,136563,,1872,1
1620713789536,136583,,1863,1
1620713789536,136604,,1861,1
1620713789536,136624,,1846,1
1620713789536,136644,,1879,1
1620713789536,136664,,1887,1
1620713790029,136684,,1822,1
1620713790029,136704,,1869,1
1620713790029,136724,,1937,1
1620713790029,136744,,2007,1
1620713790029,136764,,1945,1
1620713790029,136784,,1857,1
1620713790029,136804,,1789,1
1620713790029,136825,,1712,1
1620713790029,136845,,1731,1
1620713790029,136865,,1732,1
1620713790029,136885,,1731,1
1620713790029,136905,,1742,1
1620713790029,136925,,1726,1
1620713790029,136945,,1777,1
1620713790029,136965,,1793,1
1620713790029,136985,,1805,1
1620713790029,137005,,1811,1
1620713790029,137025,,1783,1
1620713790029,137045,,1808,1
1620713790029,137065,,1811,1
1620713790029,137085,,1799,1
1620713790029,137105,,1776,1
1620713790029,137125,,1744,1
1620713790029,137145,,1750,1
1620713790029,137165,,1778,1
1620713790529,137185,,1759,1
1620713790529,137205,,1886,1
1620713790529,137225,,2047,0
1620713790529,137245,,2211,0
1620713790529,137266,,2244,0
1620713790529,137286,,2190,0
1620713790529,137306,,2099,0
1620713790529,137326,,2016,0
1620713790529,137346,,1939,0
1620713790529,137366,,1907,0
1620713790529,137386,,1881,0
1620713790529,137406,,1856,0
1620713790529,137426,,1838,0
1620713790529,137446,,1823,0
1620713790529,137466,,1842,0
1620713790529,137487,,1845,0
1620713790529,137507,,1854,0
1620713790529,137527,,1863,0
1620713790529,137547,,1869,0
1620713790529,137567,,1901,0
1620713790529,137587,,1904,0
1620713790529,137607,,1878,0
1620713790529,137627,,1855,0
1620713790529,137647,,1808,0
1620713790529,137667,,1822,0
1620713791033,137687,,1744,0
1620713791033,137708,,1776,0
1620713791033,137728,,1859,0
1620713791033,137748,,1887,0
1620713791033,137768,,1866,0
1620713791033,137788,,1808,0
1620713791033,137808,,1748,0
1620713791033,137828,,1715,0
1620713791033,137848,,1678,0
1620713791033,137868,,1726,0
1620713791033,137888,,1749,0
1620713791033,137908,,1772,0
1620713791033,137929,,1786,0
1620713791033,137949,,1765,0
1620713791033,137969,,1810,0
1620713791033,137989,,1813,0
1620713791033,138009,,1802,0
1620713791033,138029,,1800,0
1620713791033,138049,,1801,0
1620713791033,138069,,1899,0
1620713791033,138089,,2000,0
1620713791033,138109,,2096,0
1620713791033,138129,,2167,0
1620713791033,138150,,2177,0
1620713791033,138170,,2213,0
1620713825219,171934,,1886,0
1620713825219,171954,,1842,0
1620713825219,171974,,1814,0
1620713825219,171995,,1761,0
1620713825219,172015,,1723,0
1620713825219,172035,,1691,0
1620713825219,172055,,1663,0
1620713825219,172075,,1697,0
1620713825219,172095,,1723,0
1620713825219,172115,,1746,0
1620713825219,172135,,1779,0
1620713825219,172155,,1781,0
1620713825219,172175,,1829,0
1620713825219,172195,,1851,0
1620713825219,172216,,1877,0
1620713825219,172236,,1913,0
1620713825219,172256,,1922,0
1620713825219,172276,,1997,0
1620713825219,172296,,2017,0
1620713825219,172316,,2013,0
1620713825219,172336,,1996,0
1620713825219,172356,,1939,0
1620713825723,172376,,1878,0
1620713825723,172396,,1893,0
1620713825723,172416,,1955,0
1620713825723,172437,,2047,0
1620713825723,172457,,1998,0
1620713825723,172477,,2006,0
1620713825723,172497,,2000,0
1620713825723,172517,,2000,0
1620713825723,172537,,1995,0
1620713825723,172557,,1955,0
1620713825723,172577,,1967,0
1620713825723,172597,,1957,0
1620713825723,172617,,1927,0
1620713825723,172637,,1899,0
1620713825723,172658,,1857,0
1620713825723,172678,,1837,0
1620713825723,172698,,1842,0
1620713825723,172718,,1830,0
1620713825723,172738,,1827,0
1620713825723,172758,,1823,0
1620713825723,172778,,1746,0
1620713825723,172798,,1778,0
1620713825723,172818,,1831,0
1620713825723,172838,,1873,0
1620713825723,172858,,1898,0
1620713826226,172878,,1901,0
1620713826226,172898,,1901,0
1620713826226,172918,,1885,0
1620713826226,172938,,1943,0
1620713826226,172958,,1902,0
1620713826226,172978,,1821,0
1620713826226,172998,,1806,0
1620713826226,173018,,1790,0
1620713826226,173038,,1788,0
1620713826226,173058,,1792,0
1620713826226,173078,,1760,0
1620713826226,173099,,1856,0
1620713826226,173119,,1923,0
1620713826226,173139,,1979,0
1620713826226,173159,,2023,0
1620713826226,173179,,2041,0
1620713826226,173199,,2092,0
1620713826226,173219,,2085,0
1620713826226,173239,,2047,0
1620713826226,173259,,2007,0
1620713826226,173279,,1918,0
1620713826226,173299,,1943,0
1620713826226,173319,,1936,0
1620713826226,173339,,1915,0
1620713826226,173359,,1890,0
1620713826726,173379,,1779,0
1620713826726,173399,,1807,0
1620713826726,173419,,1826,0
1620713826726,173439,,1967,0
1620713826726,173459,,1957,0
1620713826726,173479,,1889,0
1620713826726,173499,,1875,0
1620713826726,173519,,1867,0
1620713826726,173540,,1852,0
1620713826726,173560,,1838,0
1620713826726,173580,,1822,0
1620713826726,173600,,1831,0
1620713826726,173620,,1847,0
1620713826726,173640,,1843,0
1620713826726,173660,,1840,0
1620713826726,173680,,1827,0
1620713826726,173700,,1823,0
1620713826726,173720,,1831,0
1620713826726,173740,,1825,0
1620713826726,173761,,1818,0
1620713826726,173781,,1817,0
1620713826726,173801,,1808,0
1620713826726,173821,,1826,0
1620713826726,173841,,1842,0
1620713826726,173861,,1842,0
1620713827227,173881,,1754,0
1620713827227,173901,,1765,0
1620713827227,173921,,1840,0
1620713827227,173941,,1905,0
1620713827227,173961,,1872,0
1620713827227,173982,,1823,0
1620713827227,174002,,1772,0
1620713827227,174022,,1791,0
1620713827227,174042,,1819,0
1620713827227,174062,,1872,0
1620713827227,174082,,1920,0
1620713827227,174102,,1947,0
1620713827227,174122,,2002,0
1620713827227,174142,,2015,0
1620713827227,174162,,2002,0
1620713827227,174182,,1979,0
1620713827227,174203,,1923,0
1620713827227,174223,,1931,0
1620713827227,174243,,1906,0
1620713827227,174263,,1884,0
1620713827227,174283,,1856,0
1620713827227,174303,,1779,0
1620713827227,174323,,1738,0
1620713827227,174343,,1775,0
1620713827227,174363,,1824,0
1620713827737,174383,,1855,0
1620713827737,174403,,1882,0
1620713827737,174424,,1904,0
1620713827737,174444,,1947,0
1620713827737,174464,,1888,0
1620713827737,174484,,1807,0
1620713827737,174504,,1729,0
1620713827737,174524,,1728,0
1620713827737,174544,,1730,0
1620713827737,174564,,1738,0
1620713827737,174584,,1745,0
1620713827737,174604,,1744,0
1620713827737,174624,,1773,0
1620713827737,174645,,1794,0
1620713827737,174665,,1805,0
1620713827737,174685,,1807,0
1620713827737,174705,,1791,0
1620713827737,174725,,1781,0
1620713827737,174745,,1803,0
1620713827737,174765,,1794,0
1620713827737,174785,,1778,0
1620713827737,174805,,1769,0
1620713827737,174825,,1750,0
1620713827737,174845,,1775,0
1620713827737,174866,,1780,0
1620713828228,174886,,1707,0
1620713828228,174906,,1731,0
1620713828228,174926,,1830,0
1620713828228,174946,,1936,0
1620713828228,174966,,1962,0
1620713828228,174986,,1967,0
1620713828228,175006,,1972,0
1620713828228,175026,,1965,0
1620713828228,175046,,1997,0
1620713828228,175066,,1998,0
1620713828228,175087,,1979,0
1620713828228,175107,,1945,0
1620713828228,175127,,1898,0
1620713828228,175147,,1900,1
1620713828228,175167,,1877,1
1620713828228,175187,,1859,1
1620713828228,175207,,1837,1
1620713828228,175227,,1799,1
1620713828228,175247,,1825,1
1620713828228,175267,,1831,1
1620713828228,175287,,1840,1
1620713828228,175307,,1845,1
1620713828228,175327,,1826,1
1620713828228,175347,,1870,1
1620713828228,175367,,1882,1
1620713828734,175387,,1793,1
1620713828734,175407,,1794,1
1620713828734,175427,,1831,1
1620713828734,175447,,1936,0
1620713828734,175467,,1922,0
1620713828734,175487,,1872,0
1620713828734,175507,,1823,0
1620713828734,175528,,1757,0
1620713828734,175548,,1771,0
1620713828734,175568,,1781,0
1620713828734,175588,,1780,0
1620713828734,175608,,1782,0
1620713828734,175628,,1776,0
1620713828734,175648,,1782,0
1620713828734,175668,,1808,0
1620713828734,175688,,1814,0
1620713828734,175708,,1814,0
1620713828734,175728,,1818,0
1620713828734,175749,,1815,0
1620713828734,175769,,1830,0
1620713828734,175789,,1837,0
1620713828734,175809,,1831,0
1620713828734,175829,,1824,0
1620713828734,175849,,1807,0
1620713828734,175869,,1821,0
1620713829235,175889,,1749,0
1620713829235,175909,,1807,0
1620713829235,175929,,1911,0
1620713829235,175949,,2033,0
1620713829235,175970,,2082,0
1620713829235,175990,,2063,0
1620713829235,176010,,2017,0
1620713829235,176030,,1975,0
1620713829235,176050,,1921,0
1620713829235,176070,,1915,0
1620713829235,176090,,1901,0
1620713829235,176110,,1877,0
1620713829235,176130,,1858,0
1620713829235,176150,,1790,0
1620713829235,176170,,1835,0
1620713829235,176191,,1840,0
1620713829235,176211,,1827,0
1620713829235,176231,,1823,0
1620713829235,176251,,1798,0
1620713829235,176271,,1828,0
1620713829235,176291,,1829,0
1620713829235,176311,,1814,0
1620713829235,176331,,1793,0
1620713829235,176351,,1746,0
1620713829235,176371,,1776,0
1620713829740,176391,,1704,0
1620713829740,176412,,1735,0
1620713829740,176432,,1815,0
1620713829740,176452,,1840,0
1620713829740,176472,,1856,0
1620713829740,176492,,1823,0
1620713829740,176512,,1774,0
1620713829740,176532,,1725,0
1620713829740,176552,,1669,0
1620713829740,176572,,1687,0
1620713829740,176592,,1703,0
1620713829740,176612,,1713,0
1620713829740,176633,,1714,0
1620713829740,176653,,1680,0
1620713829740,176673,,1691,0
1620713829740,176693,,1707,0
1620713829740,176713,,1685,0
1620713829740,176733,,1654,0
1620713829740,176753,,1619,0
1620713829740,176773,,1601,0
1620713829740,176793,,1600,0
1620713829740,176813,,1599,0
1620713829740,176833,,1602,0
1620713829740,176854,,1616,0
1620713829740,176874,,1632,0
1620713830239,176894,,1611,0
1620713830239,176914,,1680,0
1620713830239,176934,,1826,1
1620713830239,176954,,1962,1
1620713830239,176974,,1970,1
1620713830239,176994,,1968,0
1620713830239,177014,,1934,0
1620713830239,177034,,1890,0
1620713830239,177054,,1856,0
1620713830239,177075,,1818,0
1620713830239,177095,,1830,0
1620713830239,177115,,1823,0
1620713830239,177135,,1823,0
1620713830239,177155,,1818,0
1620713830239,177175,,1793,0
1620713830239,177195,,1822,0
1620713830239,177215,,1831,0
1620713830239,177235,,1831,0
1620713830239,177255,,1830,0
1620713830239,177275,,1797,0
1620713830239,177296,,1824,0
1620713830239,177316,,1815,0
1620713830239,177336,,1798,0
1620713830239,177356,,1787,0
1620713830239,177376,,1748,0
1620713830748,177396,,1696,0
1620713830748,177416,,1729,0
1620713830748,177436,,1815,0
1620713830748,177456,,1895,0
1620713830748,177476,,1840,0
1620713830748,177496,,1833,0
1620713830748,177517,,1789,0
1620713830748,177537,,1765,0
1620713830748,177557,,1744,0
1620713830748,177577,,1703,0
1620713830748,177597,,1743,0
1620713830748,177617,,1762,0
1620713830748,177637,,1772,0
1620713830748,177657,,1776,0
1620713830748,177677,,1745,0
1620713830748,177697,,1776,0
1620713830748,177717,,1789,0
1620713830748,177738,,1790,0
1620713830748,177758,,1781,0
1620713830748,177778,,1773,0
1620713830748,177798,,1781,0
1620713830748,177818,,1797,0
1620713830748,177838,,1797,0
1620713830748,177858,,1796,0
1620713830748,177878,,1799,0
1620713831250,177898,,1745,0
1620713831250,177918,,1807,0
1620713831250,177938,,1914,0
1620713831250,177959,,2032,0
1620713831250,177979,,2023,0
1620713831250,177999,,1959,0
1620713831250,178019,,1926,0
1620713831250,178039,,1890,0
1620713831250,178059,,1861,0
1620713831250,178079,,1838,0
1620713831250,178099,,1744,0
1620713831250,178119,,1761,0
1620713831250,178139,,1810,0
1620713831250,178159,,1905,0
1620713831250,178180,,1975,0
1620713831250,178200,,1866,0
1620713831250,178220,,1826,0
1620713831250,178240,,1855,0
1620713831250,178260,,1878,0
1620713831250,178280,,1968,0
1620713831250,178300,,1907,0
1620713831250,178320,,1889,0
1620713831250,178340,,1840,0
1620713831250,178360,,1803,0
1620713831250,178380,,1787,0
1620713831782,178400,,1710,0
1620713831782,178420,,1741,0
1620713831782,178440,,1821,0
1620713831782,178460,,1931,0
1620713831782,178480,,1923,0
1620713831782,178500,,1849,0
1620713831782,178520,,1840,0
1620713831782,178540,,1812,0
1620713831782,178560,,1797,0
1620713831782,178580,,1790,0
1620713831782,178600,,1765,0
1620713831782,178620,,1804,0
1620713831782,178640,,1822,0
1620713831782,178660,,1826,0
1620713831782,178680,,1831,0
1620713831782,178700,,1823,0
1620713831782,178720,,1834,0
1620713831782,178740,,1851,0
1620713831782,178760,,1847,0
1620713831782,178780,,1827,0
1620713831782,178800,,1808,0
1620713831782,178820,,1785,0
1620713831782,178841,,1794,0
1620713831782,178861,,1793,0
1620713831782,178881,,1808,0
1620713832250,178901,,1774,0
1620713832250,178921,,1855,0
1620713832250,178941,,1975,0
1620713832250,178961,,2095,0
1620713832250,178981,,2073,0
1620713832250,179001,,2011,0
1620713832250,179021,,1939,0
1620713832250,179041,,1916,0
1620713832250,179062,,1883,0
1620713832250,179082,,1857,0
1620713832250,179102,,1842,0
1620713832250,179122,,1828,0
1620713832250,179142,,1855,0
1620713832250,179162,,1871,0
1620713832250,179182,,1879,0
1620713832250,179202,,1888,0
1620713832250,179222,,1871,0
1620713832250,179242,,1899,0
1620713832250,179262,,1902,0
1620713832250,179283,,1889,0
1620713832250,179303,,1877,0
1620713832250,179323,,1847,0
1620713832250,179343,,1872,0
1620713832250,179363,,1877,0
1620713832250,179383,,1872,0
1620713832767,179403,,1778,0
1620713832767,179423,,1826,0
1620713832767,179443,,1867,0
1620713832767,179463,,2001,0
1620713832767,179483,,1978,0
1620713832767,179504,,1909,0
1620713832767,179524,,1802,0
1620713832767,179544,,1734,0
1620713832767,179564,,1755,0
1620713832767,179584,,1797,0
1620713832767,179604,,1837,0
1620713832767,179624,,1866,0
1620713832767,179644,,1955,0
1620713832767,179664,,1925,0
1620713832767,179684,,1867,0
1620713832767,179704,,1818,0
1620713832767,179725,,1765,0
1620713832767,179745,,1773,0
1620713832767,179765,,1795,0
1620713832767,179785,,1798,0
1620713832767,179805,,1799,0
1620713832767,179825,,1793,0
1620713832767,179845,,1795,0
1620713832767,179865,,1810,0
1620713832767,179885,,1821,0
1620713833251,179906,,1753,0
1620713833251,179926,,1813,0
1620713833251,179947,,1902,1
1620713833251,179967,,2032,1
1620713833251,179987,,2018,1
1620713833251,180007,,1971,1
1620713833251,180027,,1918,1
1620713833251,180047,,1864,1
1620713833251,180067,,1857,1
1620713833251,180087,,1840,1
1620713833251,180107,,1825,1
1620713833251,180127,,1815,1
1620713833251,180147,,1790,1
1620713833251,180168,,1808,1
1620713833251,180188,,1810,1
1620713833251,180208,,1815,1
1620713833251,180228,,1826,1
1620713833251,180248,,1813,1
1620713833251,180268,,1858,1
1620713833251,180288,,1870,1
1620713833251,180308,,1867,1
1620713833251,180328,,1863,1
1620713833251,180348,,1838,1
1620713833251,180368,,1872,1
1620713833251,180389,,1872,1
1620713833758,180409,,1782,1
1620713833758,180429,,1808,1
1620713833758,180449,,1870,1
1620713833758,180469,,1968,1
1620713833758,180489,,1948,1
1620713833758,180509,,1903,1
1620713833758,180529,,1861,1
1620713833758,180549,,1795,1
1620713833758,180569,,1818,1
1620713833758,180589,,1823,1
1620713833758,180610,,1823,1
1620713833758,180630,,1823,1
1620713833758,180650,,1788,1
1620713833758,180670,,1827,1
1620713833758,180690,,1847,1
1620713833758,180710,,1844,1
1620713833758,180730,,1835,1
1620713833758,180750,,1793,1
1620713833758,180770,,1814,1
1620713833758,180790,,1822,1
1620713833758,180810,,1823,1
1620713833758,180831,,1835,1
1620713833758,180851,,1837,1
1620713833758,180871,,1884,1
1620713833758,180891,,1926,1
1620713834255,180911,,1861,1
1620713834255,180931,,1886,1
1620713834255,180951,,1951,1
1620713834255,180971,,2019,1
1620713834255,180991,,1993,1
1620713834255,181011,,1929,1
1620713834255,181031,,1851,1
1620713834255,181052,,1807,1
1620713834255,181072,,1776,1
1620713834255,181092,,1779,1
1620713834255,181112,,1792,1
1620713834255,181132,,1808,1
1620713834255,181152,,1823,1
1620713834255,181172,,1803,1
1620713834255,181192,,1871,1
1620713834255,181212,,1891,1
1620713834255,181232,,1893,1
1620713834255,181252,,1883,1
1620713834255,181273,,1862,1
1620713834255,181293,,1872,1
1620713834255,181313,,1866,1
1620713834255,181333,,1850,1
1620713834255,181353,,1835,1
1620713834255,181373,,1798,1
1620713834255,181393,,1823,1
1620713834757,181413,,1743,1
1620713834757,181433,,1767,1
1620713834757,181453,,1856,1
1620713834757,181473,,1884,1
1620713834757,181494,,1910,1
1620713834757,181514,,1873,1
1620713834757,181534,,1839,1
1620713834757,181554,,1807,1
1620713834757,181574,,1744,1
1620713834757,181594,,1799,1
1620713834757,181614,,1808,1
1620713834757,181634,,1798,1
1620713834757,181654,,1785,1
1620713834757,181674,,1746,1
1620713834757,181694,,1790,1
1620713834757,181715,,1806,1
1620713834757,181735,,1815,1
1620713834757,181755,,1837,1
1620713834757,181775,,1840,1
1620713834757,181795,,1905,1
1620713834757,181815,,1962,0
1620713834757,181835,,1983,0
1620713834757,181855,,1983,0
1620713834757,181875,,1942,0
1620713834757,181895,,1943,0
1620713835264,181915,,1853,0
1620713835264,181936,,1867,0
1620713835264,181956,,1942,0
1620713835264,181976,,1991,0
1620713835264,181996,,1959,0
1620713835264,182016,,1910,0
1620713835264,182036,,1859,0
1620713835264,182056,,1820,0
1620713835264,182076,,1804,0
1620713835264,182096,,1787,0
1620713835264,182116,,1810,0
1620713835264,182136,,1826,0
1620713835264,182157,,1840,0
1620713835264,182177,,1851,0
1620713835264,182197,,1842,0
1620713835264,182217,,1867,0
1620713835264,182237,,1863,0
1620713835264,182257,,1854,0
1620713835264,182277,,1840,0
1620713835264,182297,,1815,0
1620713835264,182317,,1833,0
1620713835264,182337,,1825,0
1620713835264,182357,,1820,0
1620713835264,182378,,1819,0
1620713835264,182398,,1791,0
1620713835775,182418,,1739,0
1620713835775,182438,,1772,0
1620713835775,182458,,1814,0
1620713835775,182478,,1946,0
1620713835775,182498,,1909,0
1620713835775,182518,,1898,0
1620713835775,182538,,1859,0
1620713835775,182558,,1823,0
1620713835775,182578,,1807,0
1620713835775,182599,,1771,0
1620713835775,182619,,1808,0
1620713835775,182639,,1824,0
1620713835775,182659,,1836,0
1620713835775,182679,,1840,0
1620713835775,182699,,1810,0
1620713835775,182719,,1874,0
1620713835775,182739,,1924,0
1620713835775,182759,,1969,0
1620713835775,182779,,2010,0
1620713835775,182799,,1990,0
1620713835775,182820,,2041,0
1620713835775,182840,,2041,0
1620713835775,182860,,2020,0
1620713835775,182880,,1991,0
1620713835775,182900,,1939,0
1620713836274,182920,,1865,0
1620713836274,182940,,1887,0
1620713836274,182960,,1951,0
1620713836274,182980,,2032,0
1620713836274,183000,,1995,0
1620713836274,183020,,1937,0
1620713836274,183041,,1899,0
1620713836274,183061,,1859,0
1620713836274,183081,,1834,0
1620713836274,183101,,1814,0
1620713836274,183121,,1821,0
1620713836274,183141,,1861,0
1620713836274,183161,,1891,0
1620713836274,183181,,1904,0
1620713836274,183201,,1904,0
1620713836274,183222,,1875,0
1620713836274,183242,,1872,0
1620713836274,183263,,1853,0
1620713836274,183283,,1833,0
1620713836274,183303,,1817,0
1620713836274,183323,,1767,0
1620713836274,183343,,1739,0
1620713836274,183363,,1779,0
1620713836274,183383,,1886,0
1620713836274,183403,,1936,0
1620713836773,183423,,1827,0
1620713836773,183443,,1801,0
1620713836773,183463,,1840,0
1620713836773,183484,,1890,0
1620713836773,183504,,1853,0
1620713836773,183524,,1794,0
1620713836773,183544,,1790,0
1620713836773,183564,,1783,0
1620713836773,183584,,1776,0
1620713836773,183604,,1773,0
1620713836773,183624,,1747,0
1620713836773,183644,,1776,0
1620713836773,183664,,1786,0
1620713836773,183684,,1799,0
1620713836773,183705,,1835,0
1620713836773,183725,,1856,0
1620713836773,183745,,1963,0
1620713836773,183765,,2022,0
1620713836773,183785,,2065,0
1620713836773,183805,,2073,0
1620713836773,183825,,2014,0
1620713836773,183845,,2010,0
1620713836773,183865,,1977,0
1620713836773,183885,,1920,1
1620713836773,183905,,1856,1
1620713837269,183925,,1712,1
1620713837269,183945,,1707,1
1620713837269,183965,,1717,1
1620713837269,183985,,1831,1
1620713837269,184005,,1814,1
1620713837269,184025,,1766,1
1620713837269,184045,,1738,1
1620713837269,184065,,1737,1
1620713837269,184085,,1744,1
1620713837269,184105,,1751,1
1620713837269,184125,,1751,1
1620713837269,184146,,1773,1
1620713837269,184166,,1794,1
1620713837269,184186,,1801,1
1620713837269,184206,,1795,1
1620713837269,184226,,1779,1
1620713837269,184246,,1744,1
1620713837269,184266,,1760,1
1620713837269,184286,,1744,1
1620713837269,184306,,1718,1
1620713837269,184326,,1693,1
1620713837269,184346,,1631,1
1620713837269,184367,,1586,1
1620713837269,184387,,1483,1
1620713837269,184407,,1350,1
1620713837774,184427,,1120,1
1620713837774,184447,,1011,1
1620713837774,184467,,967,1
1620713837774,184487,,1072,1
1620713837774,184507,,1239,1
1620713837774,184527,,1290,1
1620713837774,184547,,1266,1
1620713837774,184567,,1282,1
1620713837774,184588,,1275,1
1620713837774,184608,,1291,1
1620713837774,184628,,1363,1
1620713837774,184648,,1459,1
1620713837774,184668,,1630,1
1620713837774,184688,,1795,1
1620713837774,184708,,1914,0
1620713837774,184728,,2000,0
1620713837774,184748,,2029,0
1620713837774,184768,,2106,0
1620713837774,184788,,2123,0
1620713837774,184809,,2128,0
1620713837774,184829,,2119,0
1620713837774,184849,,2064,0
1620713837774,184869,,2078,0
1620713837774,184889,,2056,0
1620713837774,184909,,2000,0
1620713838280,184929,,1854,0
1620713838280,184949,,1845,0
1620713838280,184969,,1842,0
1620713838280,184989,,1931,0
1620713838280,185009,,1888,0
1620713838280,185030,,1829,0
1620713838280,185050,,1776,0
1620713838280,185070,,1795,0
1620713838280,185090,,1815,0
1620713838280,185110,,1827,0
1620713838280,185130,,1840,0
1620713838280,185150,,1842,0
1620713838280,185170,,1862,0
1620713838280,185190,,1885,0
1620713838280,185210,,1898,0
1620713838280,185230,,1883,0
1620713838280,185251,,1866,0
1620713838280,185271,,1842,0
1620713838280,185291,,1856,0
1620713838280,185311,,1867,0
1620713838280,185331,,1901,0
1620713838280,185351,,1863,0
1620713838280,185371,,1946,0
1620713838280,185391,,2023,0
1620713838280,185411,,2148,0
1620713838778,185432,,2039,0
1620713838778,185452,,2004,0
1620713838778,185473,,2035,0
1620713838778,185493,,2090,0
1620713838778,185513,,2047,0
1620713838778,185533,,2003,0
1620713838778,185553,,1967,0
1620713838778,185573,,1940,0
1620713838778,185593,,1994,0
1620713838778,185613,,2045,0
1620713838778,185633,,2111,0
1620713838778,185653,,2201,0
1620713838778,185673,,2302,0
1620713838778,185694,,2499,0
1620713838778,185714,,2677,0
1620713838778,185734,,2787,0
1620713838778,185754,,2815,0
1620713838778,185774,,2719,0
1620713838778,185794,,2673,0
1620713838778,185814,,2553,0
1620713838778,185834,,2422,0
1620713838778,185854,,2288,0
1620713838778,185874,,2163,0
1620713838778,185894,,2133,0
1620713838778,185915,,2096,0
1620713839281,185935,,1980,0
1620713839281,185955,,1987,0
1620713839281,185975,,2043,0
1620713839281,185995,,2141,0
1620713839281,186015,,2131,0
1620713839281,186035,,2087,0
1620713839281,186055,,2043,0
1620713839281,186075,,1986,0
1620713839281,186096,,2002,0
1620713839281,186116,,2010,0
1620713839281,186137,,2010,0
1620713839281,186157,,1994,0
1620713839281,186177,,1934,0
1620713839281,186197,,1879,0
1620713839281,186217,,1798,0
1620713839281,186237,,1639,0
1620713839281,186257,,1479,0
1620713839281,186277,,1326,1
1620713839281,186297,,1207,1
1620713839281,186317,,1119,1
1620713839281,186337,,1002,1
1620713839281,186358,,896,1
1620713839281,186378,,843,1
1620713839281,186398,,866,1
1620713839281,186418,,976,1
1620713839782,186438,,1040,1
1620713839782,186458,,1247,1
1620713839782,186478,,1502,1
1620713839782,186498,,1730,1
1620713839782,186518,,1833,1
1620713839782,186538,,1846,1
1620713839782,186558,,1839,1
1620713839782,186579,,1819,1
1620713839782,186599,,1785,1
1620713839782,186619,,1843,1
1620713839782,186639,,1881,1
1620713839782,186659,,1936,1
1620713839782,186679,,2021,1
1620713839782,186699,,2101,1
1620713839782,186719,,2215,1
1620713839782,186739,,2271,1
1620713839782,186759,,2273,1
1620713839782,186779,,2233,1
1620713839782,186800,,2142,1
1620713839782,186820,,2096,1
1620713839782,186840,,2021,1
1620713839782,186860,,1970,1
1620713839782,186880,,1933,1
1620713839782,186900,,1881,1
1620713839782,186920,,1898,1
1620713840287,186940,,1811,1
1620713840287,186960,,1840,1
1620713840287,186980,,1905,1
1620713840287,187000,,1983,1
1620713840287,187021,,2014,1
1620713840287,187041,,1989,1
1620713840287,187061,,1955,1
1620713840287,187081,,1922,1
1620713840287,187101,,1865,1
1620713840287,187121,,1887,1
1620713840287,187141,,1889,1
1620713840287,187161,,1875,1
1620713840287,187181,,1872,1
1620713840287,187201,,1847,1
1620713840287,187221,,1861,1
1620713840287,187242,,1850,1
1620713840287,187262,,1838,1
1620713840287,187282,,1826,0
1620713840287,187302,,1818,0
1620713840287,187322,,1833,0
1620713840287,187342,,1837,0
1620713840287,187362,,1805,0
1620713840287,187382,,1757,0
1620713840287,187402,,1659,0
1620713840287,187422,,1575,0
1620713840788,187442,,1473,0
1620713840788,187463,,1520,0
1620713840788,187483,,1648,0
1620713840788,187503,,1777,0
1620713840788,187523,,1845,0
1620713840788,187543,,1926,0
1620713840788,187563,,1981,0
1620713840788,187583,,2025,0
1620713840788,187603,,2080,0
1620713840788,187623,,2118,0
1620713840788,187643,,2181,0
1620713840788,187663,,2218,0
1620713840788,187684,,2246,0
1620713840788,187704,,2227,0
1620713840788,187724,,2159,0
1620713840788,187744,,2087,0
1620713840788,187764,,1923,0
1620713840788,187784,,1740,0
1620713840788,187804,,1533,0
1620713840788,187824,,1338,0
1620713840788,187844,,1225,0
1620713840788,187864,,1091,0
1620713840788,187884,,971,0
1620713840788,187905,,883,0
1620713840788,187925,,846,0
1620713841291,187945,,880,0
1620713841291,187965,,1106,0
1620713841291,187985,,1453,0
1620713841291,188005,,1782,0
1620713841291,188025,,1939,0
1620713841291,188045,,2085,0
1620713841291,188065,,2119,0
1620713841291,188085,,2086,0
1620713841291,188105,,2002,0
1620713841291,188126,,1847,0
1620713841291,188146,,1741,0
1620713841291,188166,,1516,0
1620713841291,188186,,1217,0
1620713841291,188206,,848,0
1620713841291,188226,,528,0
1620713841291,188246,,366,0
1620713841291,188266,,245,0
1620713841291,188286,,156,0
1620713841291,188306,,72,0
1620713841291,188326,,0,0
1620713841291,188347,,0,0
1620713841291,188367,,0,0
1620713841291,188387,,0,0
1620713841291,188407,,103,0
1620713841291,188427,,274,0
1620713841820,188447,,403,0
1620713841820,188467,,654,0
1620713841820,188487,,990,0
1620713841820,188507,,1380,0
1620713841820,188527,,1616,0
1620713841820,188547,,1717,0
1620713841820,188568,,1771,0
1620713841820,188588,,1805,1
1620713841820,188608,,1885,1
1620713841820,188628,,2059,1
1620713841820,188648,,2314,1
1620713841820,188668,,2674,1
1620713841820,188688,,3078,1
1620713841820,188708,,3568,1
1620713841820,188728,,3904,1
1620713841820,188748,,3902,1
1620713841820,188768,,3904,1
1620713841820,188789,,3901,1
1620713841820,188809,,3902,1
1620713841820,188829,,3905,1
1620713841820,188849,,3703,1
1620713841820,188869,,3280,1
1620713841820,188889,,2934,1
1620713841820,188909,,2640,1
1620713841820,188929,,2415,1
1620713842295,188950,,2162,1
1620713842295,188970,,2047,1
1620713842295,188990,,2021,1
1620713842295,189011,,2034,1
1620713842295,189031,,1936,1
1620713842295,189051,,1776,1
1620713842295,189071,,1706,1
1620713842295,189091,,1642,1
1620713842295,189111,,1616,1
1620713842295,189131,,1623,1
1620713842295,189151,,1616,1
1620713842295,189171,,1694,1
1620713842295,189191,,1751,1
1620713842295,189211,,1793,1
1620713842295,189232,,1826,1
1620713842295,189252,,1807,1
1620713842295,189272,,1904,1
1620713842295,189292,,1951,1
1620713842295,189312,,1979,1
1620713842295,189332,,2000,1
1620713842295,189352,,2000,1
1620713842295,189372,,2059,1
1620713842295,189392,,2110,1
1620713842295,189412,,2169,1
1620713842295,189432,,2259,1
1620713842806,189452,,2295,1
1620713842806,189472,,2428,1
1620713842806,189492,,2603,1
1620713842806,189512,,2735,1
1620713842806,189532,,2703,1
1620713842806,189552,,2617,1
1620713842806,189572,,2481,1
1620713842806,189592,,2373,0
1620713842806,189612,,2274,0
1620713842806,189632,,2180,0
1620713842806,189652,,2084,0
1620713842806,189673,,1993,0
1620713842806,189693,,1969,0
1620713842806,189713,,1963,0
1620713842806,189733,,1978,0
1620713842806,189753,,2010,0
1620713842806,189773,,2054,0
1620713842806,189793,,2139,0
1620713842806,189813,,2178,0
1620713842806,189833,,2176,0
1620713842806,189853,,2151,0
1620713842806,189873,,2082,0
1620713842806,189894,,2037,0
1620713842806,189914,,1968,0
1620713842806,189934,,1877,0
1620713850843,197913,,1829,1
1620713850843,197933,,1817,1
1620713850843,197953,,1791,1
1620713850843,197973,,1819,1
1620713851348,197994,,1766,1
1620713851348,198014,,1806,1
1620713851348,198034,,1887,1
1620713851348,198054,,1954,0
1620713851348,198075,,1933,0
1620713851348,198095,,1885,0
1620713851348,198115,,1826,0
1620713851348,198135,,1782,0
1620713851348,198155,,1739,0
1620713851348,198175,,1738,0
1620713851348,198195,,1759,0
1620713851348,198215,,1771,0
1620713851348,198235,,1776,0
1620713851348,198255,,1780,0
1620713851348,198275,,1783,0
1620713851348,198296,,1808,0
1620713851348,198316,,1818,0
1620713851348,198336,,1810,0
1620713851348,198356,,1799,0
1620713851348,198376,,1783,0
1620713851348,198396,,1807,0
1620713851348,198416,,1808,0
1620713851348,198436,,1803,0
1620713851348,198456,,1798,0
1620713851348,198476,,1790,0
1620713851844,198496,,1771,0
1620713851844,198517,,1865,0
1620713851844,198537,,2002,0
1620713851844,198557,,2138,0
1620713851844,198577,,2129,0
1620713851844,198597,,2113,0
1620713851844,198617,,2059,0
1620713851844,198637,,1998,0
1620713851844,198657,,1939,0
1620713851844,198677,,1872,0
1620713851844,198697,,1883,0
1620713851844,198717,,1878,0
1620713851844,198738,,1872,0
1620713851844,198758,,1865,0
1620713851844,198778,,1825,0
1620713851844,198798,,1855,0
1620713851844,198818,,1862,0
1620713851844,198838,,1871,0
1620713851844,198858,,1875,0
1620713851844,198878,,1843,0
1620713851844,198898,,1877,0
1620713851844,198918,,1877,0
1620713851844,198938,,1865,0
1620713851844,198959,,1849,0
1620713851844,198979,,1798,0
1620713852349,198999,,1748,0
1620713852349,199019,,1789,0
1620713852349,199039,,1831,0
1620713852349,199059,,1937,1
1620713852349,199079,,1890,1
1620713852349,199099,,1872,1
1620713852349,199119,,1840,1
1620713852349,199139,,1808,1
1620713852349,199159,,1792,1
1620713852349,199180,,1779,1
1620713852349,199200,,1792,1
1620713852349,199220,,1824,1
1620713852349,199240,,1836,1
1620713852349,199260,,1840,1
1620713852349,199280,,1838,1
1620713852349,199300,,1827,1
1620713852349,199320,,1841,1
1620713852349,199340,,1847,1
1620713852349,199360,,1857,1
1620713852349,199380,,1894,1
1620713852349,199401,,1953,1
1620713852349,199421,,2032,1
1620713852349,199441,,2083,0
1620713852349,199461,,2091,0
1620713852349,199481,,2073,0
1620713852854,199502,,1949,0
1620713852854,199522,,1937,0
1620713852854,199542,,1981,0
1620713852854,199562,,2007,0
1620713852854,199582,,1947,0
1620713852854,199602,,1864,0
1620713852854,199623,,1837,0
1620713852854,199643,,1798,0
1620713852854,199663,,1761,0
1620713852854,199683,,1736,0
1620713852854,199703,,1706,0
1620713852854,199723,,1762,0
1620713852854,199743,,1806,0
1620713852854,199763,,1844,0
1620713852854,199783,,1869,0
1620713852854,199803,,1840,0
1620713852854,199823,,1859,0
1620713852854,199844,,1840,0
1620713852854,199864,,1809,0
1620713852854,199884,,1782,0
1620713852854,199904,,1727,0
1620713852854,199924,,1745,0
1620713852854,199944,,1733,0
1620713852854,199964,,1713,0
1620713852854,199984,,1703,0
1620713853354,200004,,1625,0
1620713853354,200024,,1672,0
1620713853354,200044,,1747,0
1620713853354,200064,,1876,0
1620713853354,200084,,1900,0
1620713853354,200104,,1833,0
1620713853354,200124,,1810,0
1620713853354,200144,,1792,0
1620713853354,200164,,1783,0
1620713853354,200184,,1786,0
1620713853354,200204,,1778,0
1620713853354,200224,,1792,0
1620713853354,200244,,1815,0
1620713853354,200264,,1831,0
1620713853354,200285,,1870,0
1620713853354,200305,,1922,0
1620713853354,200325,,1990,0
1620713853354,200345,,2073,0
1620713853354,200365,,2112,0
1620713853354,200385,,2112,0
1620713853354,200405,,2086,0
1620713853354,200425,,2023,0
1620713853354,200445,,1999,0
1620713853354,200465,,1961,0
1620713853354,200485,,1921,0
1620713853856,200505,,1821,0
1620713853856,200525,,1831,0
1620713853856,200545,,1859,0
1620713853856,200565,,1879,0
1620713853856,200585,,1964,0
1620713853856,200605,,1939,0
1620713853856,200625,,1865,0
1620713853856,200645,,1840,0
1620713853856,200665,,1808,0
1620713853856,200685,,1790,0
1620713853856,200705,,1776,0
1620713853856,200726,,1755,0
1620713853856,200746,,1787,0
1620713853856,200766,,1793,0
1620713853856,200786,,1790,0
1620713853856,200806,,1779,0
1620713853856,200826,,1738,0
1620713853856,200846,,1763,0
1620713853856,200866,,1759,0
1620713853856,200886,,1747,0
1620713853856,200906,,1744,0
1620713853856,200926,,1707,0
1620713853856,200947,,1749,0
1620713853856,200967,,1758,0
1620713853856,200987,,1755,0
1620713854352,201007,,1669,0
1620713854352,201027,,1717,0
1620713854352,201047,,1758,0
1620713854352,201067,,1898,0
1620713854352,201087,,1877,0
1620713854352,201107,,1834,0
1620713854352,201127,,1749,0
1620713854352,201147,,1743,0
1620713854352,201168,,1739,0
1620713854352,201188,,1729,0
1620713854352,201208,,1730,0
1620713854352,201228,,1729,0
1620713854352,201248,,1749,0
1620713854352,201268,,1830,0
1620713854352,201288,,1897,0
1620713854352,201308,,1955,0
1620713854352,201328,,2007,0
1620713854352,201348,,2061,0
1620713854352,201368,,2101,0
1620713854352,201389,,2097,0
1620713854352,201409,,2068,0
1620713854352,201429,,2023,0
1620713854352,201449,,1969,0
1620713854352,201469,,1957,0
1620713854352,201489,,1927,0
1620713854870,201509,,1819,0
1620713854870,201529,,1809,0
1620713854870,201549,,1889,0
1620713854870,201569,,1958,0
1620713854870,201589,,1927,0
1620713854870,201610,,1878,0
1620713854870,201630,,1841,0
1620713854870,201650,,1749,0
1620713854870,201670,,1745,0
1620713854870,201690,,1794,0
1620713854870,201710,,1843,0
1620713854870,201730,,1871,0
1620713854870,201750,,1930,0
1620713854870,201770,,1941,0
1620713854870,201790,,1877,0
1620713854870,201810,,1807,0
1620713854870,201831,,1744,0
1620713854870,201851,,1698,0
1620713854870,201871,,1725,0
1620713854870,201891,,1734,0
1620713854870,201911,,1741,0
1620713854870,201931,,1744,0
1620713854870,201951,,1725,0
1620713854870,201971,,1773,0
1620713854870,201991,,1787,0
1620713855374,202012,,1708,0
1620713855374,202032,,1745,0
1620713855374,202053,,1767,0
1620713855374,202073,,1904,0
1620713855374,202093,,1875,0
1620713855374,202113,,1817,0
1620713855374,202133,,1763,0
1620713855374,202153,,1697,0
1620713855374,202173,,1727,0
1620713855374,202193,,1734,0
1620713855374,202213,,1737,0
1620713855374,202233,,1744,0
1620713855374,202253,,1733,0
1620713855374,202273,,1767,0
1620713855374,202293,,1787,0
1620713855374,202313,,1812,0
1620713855374,202333,,1855,1
1620713855374,202353,,1911,1
1620713855374,202373,,1991,1
1620713855374,202393,,2077,1
1620713855374,202413,,2115,1
1620713855374,202433,,2112,1
1620713855374,202453,,2078,1
1620713855374,202473,,2006,1
1620713855374,202494,,1970,1
1620713855860,202514,,1841,1
1620713855860,202534,,1851,1
1620713855860,202554,,1911,1
1620713855860,202574,,1970,1
1620713855860,202594,,1962,1
1620713855860,202614,,1898,1
1620713855860,202634,,1840,1
1620713855860,202654,,1807,1
1620713855860,202674,,1770,1
1620713855860,202694,,1802,1
1620713855860,202715,,1810,1
1620713855860,202735,,1825,1
1620713855860,202755,,1834,1
1620713855860,202775,,1810,1
1620713855860,202795,,1835,1
1620713855860,202815,,1826,1
1620713855860,202835,,1817,1
1620713855860,202855,,1805,1
1620713855860,202875,,1767,1
1620713855860,202895,,1789,1
1620713855860,202915,,1785,1
1620713855860,202936,,1778,1
1620713855860,202956,,1774,1
1620713855860,202976,,1741,1
1620713855860,202996,,1777,1
1620713856363,203016,,1709,1
1620713856363,203036,,1737,1
1620713856363,203056,,1829,1
1620713856363,203076,,1847,1
1620713856363,203096,,1858,1
1620713856363,203116,,1811,1
1620713856363,203136,,1767,1
1620713856363,203157,,1722,1
1620713856363,203177,,1668,1
1620713856363,203197,,1706,1
1620713856363,203217,,1715,1
1620713856363,203237,,1727,1
1620713856363,203257,,1737,1
1620713856363,203277,,1712,1
1620713856363,203297,,1725,1
1620713856363,203317,,1728,1
1620713856363,203337,,1739,1
1620713856363,203357,,1766,1
1620713856363,203378,,1808,1
1620713856363,203398,,1893,1
1620713856363,203418,,1987,1
1620713856363,203438,,2043,1
1620713856363,203458,,2081,1
1620713856363,203478,,2090,1
1620713856363,203498,,2074,1
1620713856869,203518,,1986,1
1620713856869,203538,,1979,1
1620713856869,203558,,2007,1
1620713856869,203578,,2055,1
1620713856869,203599,,1968,1
1620713856869,203619,,1928,1
1620713856869,203639,,1870,1
1620713856869,203659,,1808,1
1620713856869,203679,,1777,1
1620713856869,203699,,1754,1
1620713856869,203719,,1785,1
1620713856869,203739,,1803,1
1620713856869,203759,,1824,1
1620713856869,203779,,1841,1
1620713856869,203799,,1835,1
1620713856869,203820,,1863,1
1620713856869,203840,,1859,1
1620713856869,203860,,1845,1
1620713856869,203880,,1826,1
1620713856869,203900,,1782,1
1620713856869,203920,,1808,1
1620713856869,203940,,1807,1
1620713856869,203960,,1806,1
1620713856869,203980,,1796,1
1620713856869,204000,,1755,1
1620713857367,204020,,1711,1
1620713857367,204041,,1744,1
1620713857367,204061,,1827,1
1620713857367,204081,,1893,1
1620713857367,204101,,1833,1
1620713857367,204121,,1814,1
1620713857367,204141,,1790,1
1620713857367,204161,,1758,1
1620713857367,204181,,1741,1
1620713857367,204201,,1698,1
1620713857367,204221,,1744,1
1620713857367,204241,,1780,1
1620713857367,204262,,1798,1
1620713857367,204282,,1808,1
1620713857367,204302,,1786,1
1620713857367,204322,,1808,1
1620713857367,204342,,1823,1
1620713857367,204362,,1812,1
1620713857367,204382,,1801,1
1620713857367,204402,,1791,1
1620713857367,204422,,1804,1
1620713857367,204442,,1856,1
1620713857367,204462,,1904,1
1620713857367,204483,,1959,1
1620713857367,204503,,2001,1
1620713857900,204523,,1951,1
1620713857900,204543,,1989,1
1620713857900,204563,,2037,1
1620713857900,204583,,2098,1
1620713857900,204603,,2032,1
1620713857900,204623,,1933,1
1620713857900,204643,,1869,1
1620713857900,204663,,1813,1
1620713857900,204683,,1783,1
1620713857900,204704,,1777,1
1620713857900,204724,,1776,1
1620713857900,204744,,1815,1
1620713857900,204764,,1839,1
1620713857900,204784,,1850,1
1620713857900,204804,,1856,1
1620713857900,204824,,1841,1
1620713857900,204844,,1872,1
1620713857900,204864,,1872,1
1620713857900,204884,,1855,1
1620713857900,204904,,1844,1
1620713857900,204925,,1807,1
1620713857900,204945,,1811,1
1620713857900,204965,,1806,1
1620713857900,204985,,1795,1
1620713857900,205005,,1792,1
1620713858375,205025,,1710,1
1620713858375,205045,,1749,1
1620713858375,205065,,1827,1
1620713858375,205085,,1918,1
1620713858375,205105,,1898,1
1620713858375,205125,,1813,1
1620713858375,205146,,1793,1
1620713858375,205166,,1762,1
1620713858375,205186,,1735,1
1620713858375,205206,,1726,1
1620713858375,205226,,1686,1
1620713858375,205246,,1744,1
1620713858375,205266,,1776,1
1620713858375,205286,,1785,1
1620713858375,205306,,1786,1
1620713858375,205326,,1762,1
1620713858375,205346,,1806,1
1620713858375,205367,,1839,1
1620713858375,205387,,1870,1
1620713858375,205407,,1910,1
1620713858375,205427,,1936,1
1620713858375,205447,,1975,1
1620713858375,205467,,2000,1
1620713858375,205487,,1993,1
1620713858375,205507,,1963,1
1620713858942,205527,,1843,1
1620713858942,205547,,1845,1
1620713858942,205567,,1874,1
1620713858942,205588,,1990,1
1620713858942,205608,,1968,1
1620713858942,205628,,1905,1
1620713858942,205648,,1836,1
1620713858942,205668,,1808,1
1620713858942,205688,,1792,1
1620713858942,205708,,1792,1
1620713858942,205728,,1806,1
1620713858942,205748,,1806,1
1620713858942,205768,,1849,1
1620713858942,205788,,1866,1
1620713858942,205809,,1869,1
1620713858942,205829,,1858,1
1620713858942,205849,,1831,1
1620713858942,205869,,1838,1
1620713858942,205889,,1818,1
1620713858942,205909,,1799,1
1620713858942,205929,,1779,1
1620713858942,205949,,1750,1
1620713858942,205969,,1782,1
1620713858942,205989,,1789,1
1620713858942,206009,,1791,1
1620713859379,206029,,1712,1
1620713859379,206049,,1757,1
1620713859379,206069,,1813,1
1620713859379,206089,,1791,1
1620713859379,206109,,1898,1
1620713859379,206129,,1904,1
1620713859379,206149,,1920,1
1620713859379,206169,,1904,1
1620713859379,206189,,1835,1
1620713859379,206209,,1763,1
1620713859379,206229,,1719,1
1620713859379,206250,,1659,1
1620713859379,206270,,1723,1
1620713859379,206290,,1794,1
1620713859379,206310,,1867,1
1620713859379,206330,,1936,1
1620713859379,206350,,1965,1
1620713859379,206370,,2023,0
1620713859379,206390,,2057,0
1620713859379,206410,,2039,0
1620713859379,206430,,2019,0
1620713859379,206450,,1981,0
1620713859379,206471,,1963,0
1620713859379,206491,,1956,0
1620713859379,206511,,1936,0
1620713859915,206531,,1833,0
1620713859915,206551,,1851,0
1620713859915,206571,,1875,0
1620713859915,206591,,1830,0
1620713859915,206611,,1911,0
1620713859915,206631,,1904,0
1620713859915,206651,,1955,0
1620713859915,206671,,1903,0
1620713859915,206692,,1845,0
1620713859915,206712,,1798,0
1620713859915,206732,,1761,0
1620713859915,206752,,1747,0
1620713859915,206772,,1729,0
1620713859915,206792,,1754,0
1620713859915,206812,,1765,0
1620713859915,206832,,1773,0
1620713859915,206852,,1779,0
1620713859915,206872,,1774,0
1620713859915,206892,,1811,0
1620713859915,206913,,1818,0
1620713859915,206933,,1814,0
1620713859915,206953,,1813,0
1620713859915,206973,,1792,0
1620713859915,206993,,1818,0
1620713859915,207013,,1815,0
1620713860383,207034,,1728,0
1620713860383,207054,,1759,0
1620713860383,207074,,1647,0
1620713860383,207094,,1882,0
1620713860383,207114,,1990,0
1620713860383,207135,,1966,0
1620713860383,207155,,1978,0
1620713860383,207175,,1858,0
1620713860383,207195,,1808,0
1620713860383,207215,,1754,0
1620713860383,207235,,1723,0
1620713860383,207255,,1720,0
1620713860383,207275,,1712,0
1620713860383,207295,,1819,0
1620713860383,207315,,1904,0
1620713860383,207335,,1984,0
1620713860383,207356,,2038,0
1620713860383,207376,,2029,0
1620713860383,207396,,2065,0
1620713860383,207416,,2043,0
1620713860383,207436,,2012,0
1620713860383,207456,,1988,0
1620713860383,207476,,1945,0
1620713860383,207496,,1971,0
1620713860383,207516,,1984,0
1620713860883,207537,,1903,0
1620713860883,207557,,1927,0
1620713860883,207578,,1826,0
1620713860883,207598,,1975,0
1620713860883,207618,,1989,0
1620713860883,207638,,1990,0
1620713860883,207658,,1995,0
1620713860883,207678,,1897,0
1620713860883,207698,,1822,0
1620713860883,207718,,1774,0
1620713860883,207738,,1742,0
1620713860883,207758,,1729,0
1620713860883,207778,,1728,0
1620713860883,207798,,1730,0
1620713860883,207818,,1762,0
1620713860883,207838,,1781,0
1620713860883,207858,,1797,0
1620713860883,207878,,1807,0
1620713860883,207898,,1806,0
1620713860883,207918,,1838,0
1620713860883,207938,,1842,0
1620713860883,207958,,1837,0
1620713860883,207978,,1823,0
1620713860883,207998,,1789,0
1620713860883,208019,,1799,0
1620713861389,208040,,1722,0
1620713861389,208060,,1766,0
1620713861389,208080,,1825,0
1620713861389,208100,,1936,0
1620713861389,208120,,1957,0
1620713861389,208140,,1909,0
1620713861389,208160,,1857,0
1620713861389,208180,,1815,0
1620713861389,208200,,1761,0
1620713861389,208220,,1778,0
1620713861389,208241,,1776,0
1620713861389,208261,,1786,0
1620713861389,208281,,1808,0
1620713861389,208301,,1785,0
1620713861389,208321,,1840,0
1620713861389,208341,,1968,0
1620713861389,208361,,2079,0
1620713861389,208381,,2165,0
1620713861389,208401,,2163,0
1620713861389,208421,,2144,0
1620713861389,208441,,2064,0
1620713861389,208462,,1959,0
1620713861389,208482,,1895,0
1620713861389,208502,,1822,0
1620713861389,208522,,1838,0
1620713854870,201589,,1927,0
1620713854870,201610,,1878,0
1620713854870,201630,,1841,0
1620713854870,201650,,1749,0
1620713854870,201670,,1745,0
1620713854870,201690,,1794,0
1620713854870,201710,,1843,0
1620713854870,201730,,1871,0
1620713854870,201750,,1930,0
1620713854870,201770,,1941,0
1620713854870,201790,,1877,0
1620713854870,201810,,1807,0
1620713854870,201831,,1744,0
1620713854870,201851,,1698,0
1620713854870,201871,,1725,0
1620713854870,201891,,1734,0
1620713854870,201911,,1741,0
1620713854870,201931,,1744,0
1620713854870,201951,,1725,0
1620713854870,201971,,1773,0
1620713854870,201991,,1787,0
1620713855374,202012,,1708,0
1620713855374,202032,,1745,0
1620713855374,202053,,1767,0
1620713855374,202073,,1904,0
1620713855374,202093,,1875,0
1620713855374,202113,,1817,0
1620713855374,202133,,1763,0
1620713855374,202153,,1697,0
1620713855374,202173,,1727,0
1620713855374,202193,,1734,0
1620713855374,202213,,1737,0
1620713855374,202233,,1744,0
1620713855374,202253,,1733,0
1620713855374,202273,,1767,0
1620713855374,202293,,1787,0
1620713855374,202313,,1812,0
1620713855374,202333,,1855,1
1620713855374,202353,,1911,1
1620713855374,202373,,1991,1
1620713855374,202393,,2077,1
1620713855374,202413,,2115,1
1620713855374,202433,,2112,1
1620713855374,202453,,2078,1
1620713855374,202473,,2006,1
1620713855374,202494,,1970,1
1620713855860,202514,,1841,1
1620713855860,202534,,1851,1
1620713855860,202554,,1911,1
1620713855860,202574,,1970,1
1620713855860,202594,,1962,1
1620713855860,202614,,1898,1
1620713855860,202634,,1840,1
1620713855860,202654,,1807,1
1620713855860,202674,,1770,1
1620713855860,202694,,1802,1
1620713855860,202715,,1810,1
1620713855860,202735,,1825,1
1620713855860,202755,,1834,1
1620713855860,202775,,1810,1
1620713855860,202795,,1835,1
1620713855860,202815,,1826,1
1620713855860,202835,,1817,1
1620713855860,202855,,1805,1
1620713855860,202875,,1767,1
1620713855860,202895,,1789,1
1620713855860,202915,,1785,1
1620713855860,202936,,1778,1
1620713855860,202956,,1774,1
1620713855860,202976,,1741,1
1620713855860,202996,,1777,1
1620713856363,203016,,1709,1
1620713856363,203036,,1737,1
1620713856363,203056,,1829,1
1620713856363,203076,,1847,1
1620713856363,203096,,1858,1
1620713856363,203116,,1811,1
1620713856363,203136,,1767,1
1620713856363,203157,,1722,1
1620713856363,203177,,1668,1
1620713856363,203197,,1706,1
1620713856363,203217,,1715,1
1620713856363,203237,,1727,1
1620713856363,203257,,1737,1
1620713856363,203277,,1712,1
1620713856363,203297,,1725,1
1620713856363,203317,,1728,1
1620713856363,203337,,1739,1
1620713856363,203357,,1766,1
1620713856363,203378,,1808,1
1620713856363,203398,,1893,1
1620713856363,203418,,1987,1
1620713856363,203438,,2043,1
1620713856363,203458,,2081,1
1620713856363,203478,,2090,1
1620713856363,203498,,2074,1
1620713856869,203518,,1986,1
1620713856869,203538,,1979,1
1620713856869,203558,,2007,1
1620713856869,203578,,2055,1
1620713856869,203599,,1968,1
1620713856869,203619,,1928,1
1620713856869,203639,,1870,1
1620713856869,203659,,1808,1
1620713856869,203679,,1777,1
1620713856869,203699,,1754,1
1620713856869,203719,,1785,1
1620713856869,203739,,1803,1
1620713856869,203759,,1824,1
1620713856869,203779,,1841,1
1620713856869,203799,,1835,1
1620713856869,203820,,1863,1
1620713856869,203840,,1859,1
1620713856869,203860,,1845,1
1620713856869,203880,,1826,1
1620713856869,203900,,1782,1
1620713856869,203920,,1808,1
1620713856869,203940,,1807,1
1620713856869,203960,,1806,1
1620713856869,203980,,1796,1
1620713856869,204000,,1755,1
1620713857367,204020,,1711,1
1620713857367,204041,,1744,1
1620713857367,204061,,1827,1
1620713857367,204081,,1893,1
1620713857367,204101,,1833,1
1620713857367,204121,,1814,1
1620713857367,204141,,1790,1
1620713857367,204161,,1758,1
1620713857367,204181,,1741,1
1620713857367,204201,,1698,1
1620713857367,204221,,1744,1
1620713857367,204241,,1780,1
1620713857367,204262,,1798,1
1620713857367,204282,,1808,1
1620713857367,204302,,1786,1
1620713857367,204322,,1808,1
1620713857367,204342,,1823,1
1620713857367,204362,,1812,1
1620713857367,204382,,1801,1
1620713857367,204402,,1791,1
1620713857367,204422,,1804,1
1620713857367,204442,,1856,1
1620713857367,204462,,1904,1
1620713857367,204483,,1959,1
1620713857367,204503,,2001,1
1620713857900,204523,,1951,1
1620713857900,204543,,1989,1
1620713857900,204563,,2037,1
1620713857900,204583,,2098,1
1620713857900,204603,,2032,1
1620713857900,204623,,1933,1
1620713857900,204643,,1869,1
1620713857900,204663,,1813,1
1620713857900,204683,,1783,1
1620713857900,204704,,1777,1
1620713857900,204724,,1776,1
1620713857900,204744,,1815,1
1620713857900,204764,,1839,1
1620713857900,204784,,1850,1
1620713857900,204804,,1856,1
1620713857900,204824,,1841,1
1620713857900,204844,,1872,1
1620713857900,204864,,1872,1
1620713857900,204884,,1855,1
1620713857900,204904,,1844,1
1620713857900,204925,,1807,1
1620713857900,204945,,1811,1
1620713857900,204965,,1806,1
1620713857900,204985,,1795,1
1620713857900,205005,,1792,1
1620713858375,205025,,1710,1
1620713858375,205045,,1749,1
1620713858375,205065,,1827,1
1620713858375,205085,,1918,1
1620713858375,205105,,1898,1
1620713858375,205125,,1813,1
1620713858375,205146,,1793,1
1620713858375,205166,,1762,1
1620713858375,205186,,1735,1
1620713858375,205206,,1726,1
1620713858375,205226,,1686,1
1620713858375,205246,,1744,1
1620713858375,205266,,1776,1
1620713858375,205286,,1785,1
1620713858375,205306,,1786,1
1620713858375,205326,,1762,1
1620713858375,205346,,1806,1
1620713858375,205367,,1839,1
1620713858375,205387,,1870,1
1620713858375,205407,,1910,1
1620713858375,205427,,1936,1
1620713858375,205447,,1975,1
1620713858375,205467,,2000,1
1620713858375,205487,,1993,1
1620713858375,205507,,1963,1
1620713858942,205527,,1843,1
1620713858942,205547,,1845,1
1620713858942,205567,,1874,1
1620713858942,205588,,1990,1
1620713858942,205608,,1968,1
1620713858942,205628,,1905,1
1620713858942,205648,,1836,1
1620713858942,205668,,1808,1
1620713858942,205688,,1792,1
1620713858942,205708,,1792,1
1620713858942,205728,,1806,1
1620713858942,205748,,1806,1
1620713858942,205768,,1849,1
1620713858942,205788,,1866,1
1620713858942,205809,,1869,1
1620713858942,205829,,1858,1
1620713858942,205849,,1831,1
1620713858942,205869,,1838,1
1620713858942,205889,,1818,1
1620713858942,205909,,1799,1
1620713858942,205929,,1779,1
1620713858942,205949,,1750,1
1620713858942,205969,,1782,1
1620713858942,205989,,1789,1
1620713858942,206009,,1791,1
1620713859379,206029,,1712,1
1620713859379,206049,,1757,1
1620713859379,206069,,1813,1
1620713859379,206089,,1791,1
1620713859379,206109,,1898,1
1620713859379,206129,,1904,1
1620713859379,206149,,1920,1
1620713859379,206169,,1904,1
1620713859379,206189,,1835,1
1620713859379,206209,,1763,1
1620713859379,206229,,1719,1
1620713859379,206250,,1659,1
1620713859379,206270,,1723,1
1620713859379,206290,,1794,1
1620713859379,206310,,1867,1
1620713859379,206330,,1936,1
1620713859379,206350,,1965,1
1620713859379,206370,,2023,0
1620713859379,206390,,2057,0
1620713859379,206410,,2039,0
1620713859379,206430,,2019,0
1620713859379,206450,,1981,0
1620713859379,206471,,1963,0
1620713859379,206491,,1956,0
1620713859379,206511,,1936,0
1620713859915,206531,,1833,0
1620713859915,206551,,1851,0
1620713859915,206571,,1875,0
1620713859915,206591,,1830,0
1620713859915,206611,,1911,0
1620713859915,206631,,1904,0
1620713859915,206651,,1955,0
1620713859915,206671,,1903,0
1620713859915,206692,,1845,0
1620713859915,206712,,1798,0
1620713859915,206732,,1761,0
1620713859915,206752,,1747,0
1620713859915,206772,,1729,0
1620713859915,206792,,1754,0
1620713859915,206812,,1765,0
1620713859915,206832,,1773,0
1620713859915,206852,,1779,0
1620713859915,206872,,1774,0
1620713859915,206892,,1811,0
1620713859915,206913,,1818,0
1620713859915,206933,,1814,0
1620713859915,206953,,1813,0
1620713859915,206973,,1792,0
1620713859915,206993,,1818,0
1620713859915,207013,,1815,0
1620713860383,207034,,1728,0
1620713860383,207054,,1759,0
1620713860383,207074,,1647,0
1620713860383,207094,,1882,0
1620713860383,207114,,1990,0
1620713860383,207135,,1966,0
1620713860383,207155,,1978,0
1620713860383,207175,,1858,0
1620713860383,207195,,1808,0
1620713860383,207215,,1754,0
1620713860383,207235,,1723,0
1620713860383,207255,,1720,0
1620713860383,207275,,1712,0
1620713860383,207295,,1819,0
1620713860383,207315,,1904,0
1620713860383,207335,,1984,0
1620713860383,207356,,2038,0
1620713860383,207376,,2029,0
1620713860383,207396,,2065,0
1620713860383,207416,,2043,0
1620713860383,207436,,2012,0
1620713860383,207456,,1988,0
1620713860383,207476,,1945,0
1620713860383,207496,,1971,0
1620713860383,207516,,1984,0
1620713860883,207537,,1903,0
1620713860883,207557,,1927,0
1620713860883,207578,,1826,0
1620713860883,207598,,1975,0
1620713860883,207618,,1989,0
1620713860883,207638,,1990,0
1620713860883,207658,,1995,0
1620713860883,207678,,1897,0
1620713860883,207698,,1822,0
1620713860883,207718,,1774,0
1620713860883,207738,,1742,0
1620713860883,207758,,1729,0
1620713860883,207778,,1728,0
1620713860883,207798,,1730,0
1620713860883,207818,,1762,0
1620713860883,207838,,1781,0
1620713860883,207858,,1797,0
1620713860883,207878,,1807,0
1620713860883,207898,,1806,0
1620713860883,207918,,1838,0
1620713860883,207938,,1842,0
1620713860883,207958,,1837,0
1620713860883,207978,,1823,0
1620713860883,207998,,1789,0
1620713860883,208019,,1799,0
1620713861389,208040,,1722,0
1620713861389,208060,,1766,0
1620713861389,208080,,1825,0
1620713861389,208100,,1936,0
1620713861389,208120,,1957,0
1620713861389,208140,,1909,0
1620713861389,208160,,1857,0
1620713861389,208180,,1815,0
1620713861389,208200,,1761,0
1620713861389,208220,,1778,0
1620713861389,208241,,1776,0
1620713861389,208261,,1786,0
1620713861389,208281,,1808,0
1620713861389,208301,,1785,0
1620713861389,208321,,1840,0
1620713861389,208341,,1968,0
1620713861389,208361,,2079,0
1620713861389,208381,,2165,0
1620713861389,208401,,2163,0
1620713861389,208421,,2144,0
1620713861389,208441,,2064,0
1620713861389,208462,,1959,0
1620713861389,208482,,1895,0
1620713861389,208502,,1822,0
1620713861389,208522,,1838,0
1620713861890,208542,,1758,0
1620713861890,208562,,1808,0
1620713861890,208582,,1839,0
1620713861890,208602,,1965,0
1620713861890,208622,,1988,0
1620713861890,208642,,1955,0
1620713861890,208662,,1918,0
1620713861890,208683,,1888,0
1620713861890,208703,,1872,0
1620713861890,208723,,1825,0
1620713861890,208743,,1885,0
1620713861890,208763,,1952,0
1620713861890,208783,,2007,0
1620713861890,208803,,2075,0
1620713861890,208823,,1999,0
1620713861890,208843,,1935,0
1620713861890,208863,,1861,0
1620713861890,208883,,1815,0
1620713861890,208904,,1791,0
1620713861890,208924,,1781,0
1620713861890,208944,,1802,0
1620713861890,208964,,1805,0
1620713861890,208984,,1807,0
1620713861890,209004,,1805,0
1620713861890,209024,,1786,0
1620713862391,209044,,1731,0
1620713862391,209064,,1775,0
1620713862391,209084,,1827,0
1620713862391,209104,,1941,0
1620713862391,209125,,1907,0
1620713862391,209145,,1879,0
1620713862391,209165,,1841,0
1620713862391,209185,,1823,0
1620713862391,209205,,1841,0
1620713862391,209225,,1856,0
1620713862391,209245,,1935,0
1620713862391,209265,,1971,0
1620713862391,209285,,1971,0
1620713862391,209305,,1945,0
1620713862391,209325,,1873,0
1620713862391,209346,,1868,0
1620713862391,209366,,1837,0
1620713862391,209386,,1803,0
1620713862391,209406,,1781,0
1620713862391,209426,,1742,0
1620713862391,209446,,1777,0
1620713862391,209466,,1785,0
1620713862391,209486,,1775,0
1620713862391,209506,,1761,0
1620713862391,209526,,1728,0
1620713862901,209546,,1694,0
1620713862901,209567,,1754,0
1620713862901,209587,,1798,0
1620713862901,209607,,1933,0
1620713862901,209627,,1885,0
1620713862901,209647,,1856,0
1620713862901,209667,,1818,0
1620713862901,209687,,1787,0
1620713862901,209707,,1761,0
1620713862901,209727,,1741,0
1620713862901,209747,,1745,0
1620713862901,209767,,1775,0
1620713862901,209788,,1786,0
1620713862901,209808,,1789,1
1620713862901,209828,,1792,1
1620713862901,209848,,1779,1
1620713862901,209868,,1793,1
1620713862901,209888,,1786,1
1620713862901,209908,,1773,1
1620713862901,209928,,1763,1
1620713862901,209948,,1748,1
1620713862901,209968,,1776,1
1620713862901,209988,,1786,1
1620713862901,210009,,1787,1
1620713862901,210029,,1787,1
1620713863396,210049,,1704,1
1620713863396,210069,,1749,1
1620713863396,210089,,1802,1
1620713863396,210109,,1691,1
1620713863396,210129,,1894,1
1620713863396,210149,,1994,1
1620713863396,210169,,2083,0
1620713863396,210189,,2170,0
1620713863396,210209,,2158,0
1620713863396,210230,,2112,0
1620713863396,210250,,2035,0
1620713863396,210270,,2021,0
1620713863396,210290,,1982,0
1620713863396,210310,,1957,0
1620713863396,210330,,1936,0
1620713863396,210350,,1895,0
1620713863396,210370,,1914,0
1620713863396,210390,,1906,0
1620713863396,210410,,1888,0
1620713863396,210430,,1869,0
1620713863396,210451,,1823,0
1620713863396,210471,,1842,0
1620713863396,210491,,1840,0
1620713863396,210511,,1840,0
1620713863396,210531,,1837,0
1620713863898,210551,,1751,0
1620713863898,210571,,1794,0
1620713863898,210591,,1845,0
1620713863898,210611,,1829,0
1620713863898,210631,,1969,0
1620713863898,210651,,1970,0
1620713863898,210671,,1989,0
1620713863898,210691,,1935,0
1620713863898,210711,,1837,0
1620713863898,210731,,1757,0
1620713863898,210751,,1706,0
1620713863898,210771,,1702,0
1620713863898,210791,,1726,0
1620713863898,210811,,1744,0
1620713863898,210831,,1772,0
1620713863898,210851,,1792,0
1620713863898,210871,,1798,0
1620713863898,210892,,1835,0
1620713863898,210912,,1840,0
1620713863898,210932,,1833,0
1620713863898,210952,,1826,0
1620713863898,210972,,1786,0
1620713863898,210992,,1831,0
1620713863898,211012,,1827,0
1620713863898,211032,,1811,0
1620713864402,211052,,1716,0
1620713864402,211072,,1751,0
1620713864402,211092,,1817,0
1620713864402,211113,,1874,0
1620713864402,211133,,1950,0
1620713864402,211153,,1906,0
1620713864402,211173,,1831,1
1620713864402,211193,,1813,1
1620713864402,211213,,1795,1
1620713864402,211233,,1806,1
1620713864402,211253,,1846,1
1620713864402,211273,,1914,1
1620713864402,211293,,2027,1
1620713864402,211313,,2103,0
1620713864402,211334,,2143,0
1620713864402,211354,,2142,0
1620713864402,211374,,2089,0
1620713864402,211394,,2087,0
1620713864402,211414,,2055,0
1620713864402,211434,,2025,0
1620713864402,211454,,2000,0
1620713864402,211474,,1955,0
1620713864402,211494,,1993,0
1620713864402,211514,,1997,0
1620713864402,211534,,1999,0
1620713852854,199623,,1837,0
1620713852854,199643,,1798,0
1620713852854,199663,,1761,0
1620713852854,199683,,1736,0
1620713852854,199703,,1706,0
1620713852854,199723,,1762,0
1620713852854,199743,,1806,0
1620713852854,199763,,1844,0
1620713852854,199783,,1869,0
1620713852854,199803,,1840,0
1620713852854,199823,,1859,0
1620713852854,199844,,1840,0
1620713852854,199864,,1809,0
1620713852854,199884,,1782,0
1620713852854,199904,,1727,0
1620713852854,199924,,1745,0
1620713852854,199944,,1733,0
1620713852854,199964,,1713,0
1620713852854,199984,,1703,0
1620713853354,200004,,1625,0
1620713853354,200024,,1672,0
1620713853354,200044,,1747,0
1620713853354,200064,,1876,0
1620713853354,200084,,1900,0
1620713853354,200104,,1833,0
1620713853354,200124,,1810,0
1620713853354,200144,,1792,0
1620713853354,200164,,1783,0
1620713853354,200184,,1786,0
1620713853354,200204,,1778,0
1620713853354,200224,,1792,0
1620713853354,200244,,1815,0
1620713853354,200264,,1831,0
1620713853354,200285,,1870,0
1620713853354,200305,,1922,0
1620713853354,200325,,1990,0
1620713853354,200345,,2073,0
1620713853354,200365,,2112,0
1620713853354,200385,,2112,0
1620713853354,200405,,2086,0
1620713853354,200425,,2023,0
1620713853354,200445,,1999,0
1620713853354,200465,,1961,0
1620713853354,200485,,1921,0
1620713853856,200505,,1821,0
1620713853856,200525,,1831,0
1620713853856,200545,,1859,0
1620713853856,200565,,1879,0
1620713853856,200585,,1964,0
1620713853856,200605,,1939,0
1620713853856,200625,,1865,0
1620713853856,200645,,1840,0
1620713853856,200665,,1808,0
1620713853856,200685,,1790,0
1620713853856,200705,,1776,0
1620713853856,200726,,1755,0
1620713853856,200746,,1787,0
1620713853856,200766,,1793,0
1620713853856,200786,,1790,0
1620713853856,200806,,1779,0
1620713853856,200826,,1738,0
1620713853856,200846,,1763,0
1620713853856,200866,,1759,0
1620713853856,200886,,1747,0
1620713853856,200906,,1744,0
1620713853856,200926,,1707,0
1620713853856,200947,,1749,0
1620713853856,200967,,1758,0
1620713853856,200987,,1755,0
1620713854352,201007,,1669,0
1620713854352,201027,,1717,0
1620713854352,201047,,1758,0
1620713854352,201067,,1898,0
1620713854352,201087,,1877,0
1620713854352,201107,,1834,0
1620713854352,201127,,1749,0
1620713854352,201147,,1743,0
1620713854352,201168,,1739,0
1620713854352,201188,,1729,0
1620713854352,201208,,1730,0
1620713854352,201228,,1729,0
1620713854352,201248,,1749,0
1620713854352,201268,,1830,0
1620713854352,201288,,1897,0
1620713854352,201308,,1955,0
1620713854352,201328,,2007,0
1620713854352,201348,,2061,0
1620713854352,201368,,2101,0
1620713854352,201389,,2097,0
1620713854352,201409,,2068,0
1620713854352,201429,,2023,0
1620713854352,201449,,1969,0
1620713854352,201469,,1957,0
1620713854352,201489,,1927,0
1620713854870,201509,,1819,0
1620713854870,201529,,1809,0
1620713854870,201549,,1889,0
1620713854870,201569,,1958,0
1620713854870,201589,,1927,0
1620713854870,201610,,1878,0
1620713854870,201630,,1841,0
1620713854870,201650,,1749,0
1620713854870,201670,,1745,0
1620713854870,201690,,1794,0
1620713854870,201710,,1843,0
1620713854870,201730,,1871,0
1620713854870,201750,,1930,0
1620713854870,201770,,1941,0
1620713854870,201790,,1877,0
1620713854870,201810,,1807,0
1620713854870,201831,,1744,0
1620713854870,201851,,1698,0
1620713854870,201871,,1725,0
1620713854870,201891,,1734,0
1620713854870,201911,,1741,0
1620713854870,201931,,1744,0
1620713854870,201951,,1725,0
1620713854870,201971,,1773,0
1620713854870,201991,,1787,0
1620713855374,202012,,1708,0
1620713855374,202032,,1745,0
1620713855374,202053,,1767,0
1620713855374,202073,,1904,0
1620713855374,202093,,1875,0
1620713855374,202113,,1817,0
1620713855374,202133,,1763,0
1620713855374,202153,,1697,0
1620713855374,202173,,1727,0
1620713855374,202193,,1734,0
1620713855374,202213,,1737,0
1620713855374,202233,,1744,0
1620713855374,202253,,1733,0
1620713855374,202273,,1767,0
1620713855374,202293,,1787,0
1620713855374,202313,,1812,0
1620713855374,202333,,1855,1
1620713855374,202353,,1911,1
1620713855374,202373,,1991,1
1620713855374,202393,,2077,1
1620713855374,202413,,2115,1
1620713855374,202433,,2112,1
1620713855374,202453,,2078,1
1620713855374,202473,,2006,1
1620713855374,202494,,1970,1
1620713855860,202514,,1841,1
1620713855860,202534,,1851,1
1620713855860,202554,,1911,1
1620713855860,202574,,1970,1
1620713855860,202594,,1962,1
1620713855860,202614,,1898,1
1620713855860,202634,,1840,1
1620713855860,202654,,1807,1
1620713855860,202674,,1770,1
1620713855860,202694,,1802,1
1620713855860,202715,,1810,1
1620713855860,202735,,1825,1
1620713855860,202755,,1834,1
1620713855860,202775,,1810,1
1620713855860,202795,,1835,1
1620713855860,202815,,1826,1
1620713855860,202835,,1817,1
1620713855860,202855,,1805,1
1620713855860,202875,,1767,1
1620713855860,202895,,1789,1
1620713855860,202915,,1785,1
1620713855860,202936,,1778,1
1620713855860,202956,,1774,1
1620713855860,202976,,1741,1
1620713855860,202996,,1777,1
1620713856363,203016,,1709,1
1620713856363,203036,,1737,1
1620713856363,203056,,1829,1
1620713856363,203076,,1847,1
1620713856363,203096,,1858,1
1620713856363,203116,,1811,1
1620713856363,203136,,1767,1
1620713856363,203157,,1722,1
1620713856363,203177,,1668,1
1620713856363,203197,,1706,1
1620713856363,203217,,1715,1
1620713856363,203237,,1727,1
1620713856363,203257,,1737,1
1620713856363,203277,,1712,1
1620713856363,203297,,1725,1
1620713856363,203317,,1728,1
1620713856363,203337,,1739,1
1620713856363,203357,,1766,1
1620713856363,203378,,1808,1
1620713856363,203398,,1893,1
1620713856363,203418,,1987,1
1620713856363,203438,,2043,1
1620713856363,203458,,2081,1
1620713856363,203478,,2090,1
1620713856363,203498,,2074,1
1620713856869,203518,,1986,1
1620713856869,203538,,1979,1
1620713856869,203558,,2007,1
1620713856869,203578,,2055,1
1620713856869,203599,,1968,1
1620713856869,203619,,1928,1
1620713856869,203639,,1870,1
1620713856869,203659,,1808,1
1620713856869,203679,,1777,1
1620713856869,203699,,1754,1
1620713856869,203719,,1785,1
1620713856869,203739,,1803,1
1620713856869,203759,,1824,1
1620713856869,203779,,1841,1
1620713856869,203799,,1835,1
1620713856869,203820,,1863,1
1620713856869,203840,,1859,1
1620713856869,203860,,1845,1
1620713856869,203880,,1826,1
1620713856869,203900,,1782,1
1620713856869,203920,,1808,1
1620713856869,203940,,1807,1
1620713856869,203960,,1806,1
1620713856869,203980,,1796,1
1620713856869,204000,,1755,1
1620713857367,204020,,1711,1
1620713857367,204041,,1744,1
1620713857367,204061,,1827,1
1620713857367,204081,,1893,1
1620713857367,204101,,1833,1
1620713857367,204121,,1814,1
1620713857367,204141,,1790,1
1620713857367,204161,,1758,1
1620713857367,204181,,1741,1
1620713857367,204201,,1698,1
1620713857367,204221,,1744,1
1620713857367,204241,,1780,1
1620713857367,204262,,1798,1
1620713857367,204282,,1808,1
1620713857367,204302,,1786,1
1620713857367,204322,,1808,1
1620713857367,204342,,1823,1
1620713857367,204362,,1812,1
1620713857367,204382,,1801,1
1620713857367,204402,,1791,1
1620713857367,204422,,1804,1
1620713857367,204442,,1856,1
1620713857367,204462,,1904,1
1620713857367,204483,,1959,1
1620713857367,204503,,2001,1
1620713857900,204523,,1951,1
1620713857900,204543,,1989,1
1620713857900,204563,,2037,1
1620713857900,204583,,2098,1
1620713857900,204603,,2032,1
1620713857900,204623,,1933,1
1620713857900,204643,,1869,1
1620713857900,204663,,1813,1
1620713857900,204683,,1783,1
1620713857900,204704,,1777,1
1620713857900,204724,,1776,1
1620713857900,204744,,1815,1
1620713857900,204764,,1839,1
1620713857900,204784,,1850,1
1620713857900,204804,,1856,1
1620713857900,204824,,1841,1
1620713857900,204844,,1872,1
1620713857900,204864,,1872,1
1620713857900,204884,,1855,1
1620713857900,204904,,1844,1
1620713857900,204925,,1807,1
1620713857900,204945,,1811,1
1620713857900,204965,,1806,1
1620713857900,204985,,1795,1
1620713857900,205005,,1792,1
1620713858375,205025,,1710,1
1620713858375,205045,,1749,1
1620713858375,205065,,1827,1
1620713858375,205085,,1918,1
1620713858375,205105,,1898,1
1620713858375,205125,,1813,1
1620713858375,205146,,1793,1
1620713858375,205166,,1762,1
1620713858375,205186,,1735,1
1620713858375,205206,,1726,1
1620713858375,205226,,1686,1
1620713858375,205246,,1744,1
1620713858375,205266,,1776,1
1620713858375,205286,,1785,1
1620713858375,205306,,1786,1
1620713858375,205326,,1762,1
1620713858375,205346,,1806,1
1620713858375,205367,,1839,1
1620713858375,205387,,1870,1
1620713858375,205407,,1910,1
1620713858375,205427,,1936,1
1620713858375,205447,,1975,1
1620713858375,205467,,2000,1
1620713858375,205487,,1993,1
1620713858375,205507,,1963,1
1620713858942,205527,,1843,1
1620713858942,205547,,1845,1
1620713858942,205567,,1874,1
1620713858942,205588,,1990,1
1620713858942,205608,,1968,1
1620713858942,205628,,1905,1
1620713858942,205648,,1836,1
1620713858942,205668,,1808,1
1620713858942,205688,,1792,1
1620713858942,205708,,1792,1
1620713858942,205728,,1806,1
1620713858942,205748,,1806,1
1620713858942,205768,,1849,1
1620713858942,205788,,1866,1
1620713858942,205809,,1869,1
1620713858942,205829,,1858,1
1620713858942,205849,,1831,1
1620713858942,205869,,1838,1
1620713858942,205889,,1818,1
1620713858942,205909,,1799,1
1620713858942,205929,,1779,1
1620713858942,205949,,1750,1
1620713858942,205969,,1782,1
1620713858942,205989,,1789,1
1620713858942,206009,,1791,1
1620713859379,206029,,1712,1
1620713859379,206049,,1757,1
1620713859379,206069,,1813,1
1620713859379,206089,,1791,1
1620713859379,206109,,1898,1
1620713859379,206129,,1904,1
1620713859379,206149,,1920,1
1620713859379,206169,,1904,1
1620713859379,206189,,1835,1
1620713859379,206209,,1763,1
1620713859379,206229,,1719,1
1620713859379,206250,,1659,1
1620713859379,206270,,1723,1
1620713859379,206290,,1794,1
1620713859379,206310,,1867,1
1620713859379,206330,,1936,1
1620713859379,206350,,1965,1
1620713859379,206370,,2023,0
1620713859379,206390,,2057,0
1620713859379,206410,,2039,0
1620713859379,206430,,2019,0
1620713859379,206450,,1981,0
1620713859379,206471,,1963,0
1620713859379,206491,,1956,0
1620713859379,206511,,1936,0
1620713859915,206531,,1833,0
1620713859915,206551,,1851,0
1620713859915,206571,,1875,0
1620713859915,206591,,1830,0
1620713859915,206611,,1911,0
1620713859915,206631,,1904,0
1620713859915,206651,,1955,0
1620713859915,206671,,1903,0
1620713859915,206692,,1845,0
1620713859915,206712,,1798,0
1620713859915,206732,,1761,0
1620713859915,206752,,1747,0
1620713859915,206772,,1729,0
1620713859915,206792,,1754,0
1620713859915,206812,,1765,0
1620713859915,206832,,1773,0
1620713859915,206852,,1779,0
1620713859915,206872,,1774,0
1620713859915,206892,,1811,0
1620713859915,206913,,1818,0
1620713859915,206933,,1814,0
1620713859915,206953,,1813,0
1620713859915,206973,,1792,0
1620713859915,206993,,1818,0
1620713859915,207013,,1815,0
1620713860383,207034,,1728,0
1620713860383,207054,,1759,0
1620713860383,207074,,1647,0
1620713860383,207094,,1882,0
1620713860383,207114,,1990,0
1620713860383,207135,,1966,0
1620713860383,207155,,1978,0
1620713860383,207175,,1858,0
1620713860383,207195,,1808,0
1620713860383,207215,,1754,0
1620713860383,207235,,1723,0
1620713860383,207255,,1720,0
1620713860383,207275,,1712,0
1620713860383,207295,,1819,0
1620713860383,207315,,1904,0
1620713860383,207335,,1984,0
1620713860383,207356,,2038,0
1620713860383,207376,,2029,0
1620713860383,207396,,2065,0
1620713860383,207416,,2043,0
1620713860383,207436,,2012,0
1620713860383,207456,,1988,0
1620713860383,207476,,1945,0
1620713860383,207496,,1971,0
1620713860383,207516,,1984,0
1620713860883,207537,,1903,0
1620713860883,207557,,1927,0
1620713860883,207578,,1826,0
1620713860883,207598,,1975,0
1620713860883,207618,,1989,0
1620713860883,207638,,1990,0
1620713860883,207658,,1995,0
1620713860883,207678,,1897,0
1620713860883,207698,,1822,0
1620713860883,207718,,1774,0
1620713860883,207738,,1742,0
1620713860883,207758,,1729,0
1620713860883,207778,,1728,0
1620713860883,207798,,1730,0
1620713860883,207818,,1762,0
1620713860883,207838,,1781,0
1620713860883,207858,,1797,0
1620713860883,207878,,1807,0
1620713860883,207898,,1806,0
1620713860883,207918,,1838,0
1620713860883,207938,,1842,0
1620713860883,207958,,1837,0
1620713860883,207978,,1823,0
1620713860883,207998,,1789,0
1620713860883,208019,,1799,0
1620713861389,208040,,1722,0
1620713861389,208060,,1766,0
1620713861389,208080,,1825,0
1620713861389,208100,,1936,0
1620713861389,208120,,1957,0
1620713861389,208140,,1909,0
1620713861389,208160,,1857,0
1620713861389,208180,,1815,0
1620713861389,208200,,1761,0
1620713861389,208220,,1778,0
1620713861389,208241,,1776,0
1620713861389,208261,,1786,0
1620713861389,208281,,1808,0
1620713861389,208301,,1785,0
1620713861389,208321,,1840,0
1620713861389,208341,,1968,0
1620713861389,208361,,2079,0
1620713861389,208381,,2165,0
1620713861389,208401,,2163,0
1620713861389,208421,,2144,0
1620713861389,208441,,2064,0
1620713861389,208462,,1959,0
1620713861389,208482,,1895,0
1620713861389,208502,,1822,0
1620713861389,208522,,1838,0
1620713861890,208542,,1758,0
1620713861890,208562,,1808,0
1620713861890,208582,,1839,0
1620713861890,208602,,1965,0
1620713861890,208622,,1988,0
1620713861890,208642,,1955,0
1620713861890,208662,,1918,0
1620713861890,208683,,1888,0
1620713861890,208703,,1872,0
1620713861890,208723,,1825,0
1620713861890,208743,,1885,0
1620713861890,208763,,1952,0
1620713861890,208783,,2007,0
1620713861890,208803,,2075,0
1620713861890,208823,,1999,0
1620713861890,208843,,1935,0
1620713861890,208863,,1861,0
1620713861890,208883,,1815,0
1620713861890,208904,,1791,0
1620713861890,208924,,1781,0
1620713861890,208944,,1802,0
1620713861890,208964,,1805,0
1620713861890,208984,,1807,0
1620713861890,209004,,1805,0
1620713861890,209024,,1786,0
1620713862391,209044,,1731,0
1620713862391,209064,,1775,0
1620713862391,209084,,1827,0
1620713862391,209104,,1941,0
1620713862391,209125,,1907,0
1620713862391,209145,,1879,0
1620713862391,209165,,1841,0
1620713862391,209185,,1823,0
1620713862391,209205,,1841,0
1620713862391,209225,,1856,0
1620713862391,209245,,1935,0
1620713862391,209265,,1971,0
1620713862391,209285,,1971,0
1620713862391,209305,,1945,0
1620713862391,209325,,1873,0
1620713862391,209346,,1868,0
1620713862391,209366,,1837,0
1620713862391,209386,,1803,0
1620713862391,209406,,1781,0
1620713862391,209426,,1742,0
1620713862391,209446,,1777,0
1620713862391,209466,,1785,0
1620713862391,209486,,1775,0
1620713862391,209506,,1761,0
1620713862391,209526,,1728,0
1620713862901,209546,,1694,0
1620713862901,209567,,1754,0
1620713862901,209587,,1798,0
1620713862901,209607,,1933,0
1620713862901,209627,,1885,0
1620713862901,209647,,1856,0
1620713862901,209667,,1818,0
1620713862901,209687,,1787,0
1620713862901,209707,,1761,0
1620713862901,209727,,1741,0
1620713862901,209747,,1745,0
1620713862901,209767,,1775,0
1620713862901,209788,,1786,0
1620713862901,209808,,1789,1
1620713862901,209828,,1792,1
1620713862901,209848,,1779,1
1620713862901,209868,,1793,1
1620713862901,209888,,1786,1
1620713862901,209908,,1773,1
1620713862901,209928,,1763,1
1620713862901,209948,,1748,1
1620713862901,209968,,1776,1
1620713862901,209988,,1786,1
1620713862901,210009,,1787,1
1620713862901,210029,,1787,1
1620713863396,210049,,1704,1
1620713863396,210069,,1749,1
1620713863396,210089,,1802,1
1620713863396,210109,,1691,1
1620713863396,210129,,1894,1
1620713863396,210149,,1994,1
1620713863396,210169,,2083,0
1620713863396,210189,,2170,0
1620713863396,210209,,2158,0
1620713863396,210230,,2112,0
1620713863396,210250,,2035,0
1620713863396,210270,,2021,0
1620713863396,210290,,1982,0
1620713863396,210310,,1957,0
1620713863396,210330,,1936,0
1620713863396,210350,,1895,0
1620713863396,210370,,1914,0
1620713863396,210390,,1906,0
1620713863396,210410,,1888,0
1620713863396,210430,,1869,0
1620713863396,210451,,1823,0
1620713863396,210471,,1842,0
1620713863396,210491,,1840,0
1620713863396,210511,,1840,0
1620713863396,210531,,1837,0
1620713863898,210551,,1751,0
1620713863898,210571,,1794,0
1620713863898,210591,,1845,0
1620713863898,210611,,1829,0
1620713863898,210631,,1969,0
1620713863898,210651,,1970,0
1620713863898,210671,,1989,0
1620713863898,210691,,1935,0
1620713863898,210711,,1837,0
1620713863898,210731,,1757,0
1620713863898,210751,,1706,0
1620713863898,210771,,1702,0
1620713863898,210791,,1726,0
1620713863898,210811,,1744,0
1620713863898,210831,,1772,0
1620713863898,210851,,1792,0
1620713863898,210871,,1798,0
1620713863898,210892,,1835,0
1620713863898,210912,,1840,0
1620713863898,210932,,1833,0
1620713863898,210952,,1826,0
1620713863898,210972,,1786,0
1620713863898,210992,,1831,0
1620713863898,211012,,1827,0
1620713863898,211032,,1811,0
1620713864402,211052,,1716,0
1620713864402,211072,,1751,0
1620713864402,211092,,1817,0
1620713864402,211113,,1874,0
1620713864402,211133,,1950,0
1620713864402,211153,,1906,0
1620713864402,211173,,1831,1
1620713864402,211193,,1813,1
1620713864402,211213,,1795,1
1620713864402,211233,,1806,1
1620713864402,211253,,1846,1
1620713864402,211273,,1914,1
1620713864402,211293,,2027,1
1620713864402,211313,,2103,0
1620713864402,211334,,2143,0
1620713864402,211354,,2142,0
1620713864402,211374,,2089,0
1620713864402,211394,,2087,0
1620713864402,211414,,2055,0
1620713864402,211434,,2025,0
1620713864402,211454,,2000,0
1620713864402,211474,,1955,0
1620713864402,211494,,1993,0
1620713864402,211514,,1997,0
1620713864402,211534,,1999,0
1620713864909,211554,,1920,0
1620713864909,211574,,1965,0
1620713864909,211594,,1995,0
1620713864909,211614,,2127,0
1620713864909,211634,,2093,0
1620713864909,211654,,2012,0
1620713864909,211674,,1905,0
1620713864909,211694,,1873,0
1620713864909,211714,,1851,0
1620713864909,211734,,1826,0
1620713864909,211754,,1815,0
1620713864909,211775,,1786,0
1620713864909,211795,,1776,0
1620713864909,211815,,1779,0
1620713864909,211835,,1776,0
1620713864909,211855,,1776,0
1620713864909,211875,,1791,0
1620713864909,211895,,1806,0
1620713864909,211915,,1842,0
1620713864909,211935,,1862,0
1620713864909,211955,,1870,0
1620713864909,211975,,1867,0
1620713864909,211996,,1855,0
1620713864909,212016,,1868,0
1620713864909,212036,,1855,0
1620713865462,212056,,1759,0
1620713865462,212076,,1776,0
1620713865462,212096,,1861,0
1620713865462,212116,,1930,0
1620713865462,212136,,1895,0
1620713865462,212156,,1839,0
1620713865462,212176,,1789,0
1620713865462,212196,,1739,0
1620713865462,212217,,1744,0
1620713865462,212237,,1751,0
1620713865462,212257,,1778,0
1620713865462,212277,,1834,0
1620713865462,212297,,1880,0
1620713865462,212317,,1986,1
1620713865462,212337,,2067,1
1620713865462,212357,,2095,1
1620713865462,212377,,2083,1
1620713865462,212397,,2003,1
1620713865462,212417,,1987,1
1620713865462,212438,,1929,1
1620713865462,212458,,1872,1
1620713865462,212478,,1826,1
1620713865462,212498,,1751,1
1620713865462,212518,,1765,1
1620713865462,212538,,1754,1
1620713865906,212558,,1651,1
1620713865906,212578,,1671,1
1620713865906,212598,,1726,1
1620713865906,212618,,1828,1
1620713865906,212638,,1822,1
1620713865906,212659,,1783,1
1620713865906,212679,,1750,1
1620713865906,212699,,1711,1
1620713865906,212719,,1740,1
1620713865906,212739,,1757,1
1620713865906,212759,,1774,1
1620713865906,212779,,1783,1
1620713865906,212799,,1785,1
1620713865906,212819,,1803,1
1620713865906,212839,,1827,1
1620713865906,212859,,1838,1
1620713865906,212880,,1840,1
1620713865906,212900,,1811,1
1620713865906,212920,,1808,1
1620713865906,212940,,1809,1
1620713865906,212960,,1805,1
1620713865906,212980,,1792,1
1620713865906,213000,,1789,1
1620713865906,213020,,1776,1
1620713865906,213040,,1793,1
1620713866407,213061,,1712,1
1620713866407,213081,,1741,1
1620713866407,213102,,1821,1
1620713866407,213122,,1885,1
1620713866407,213142,,1891,1
1620713866407,213162,,1852,1
1620713866407,213182,,1814,1
1620713866407,213202,,1801,1
1620713866407,213222,,1813,1
1620713866407,213242,,1903,1
1620713866407,213262,,1999,1
1620713866407,213282,,2077,1
1620713866407,213302,,2135,1
1620713866407,213323,,2141,1
1620713866407,213343,,2159,1
1620713866407,213363,,2132,1
1620713866407,213383,,2087,1
1620713866407,213403,,2031,1
1620713866407,213423,,1966,1
1620713866407,213443,,1963,1
1620713866407,213463,,1937,1
1620713866407,213483,,1914,1
1620713866407,213503,,1887,1
1620713866407,213523,,1844,1
1620713866407,213544,,1867,1
1620713866907,213564,,1791,1
1620713866907,213584,,1819,1
1620713866907,213604,,1901,1
1620713866907,213624,,1937,1
1620713866907,213644,,1949,1
1620713866907,213664,,1904,1
1620713866907,213684,,1848,1
1620713866907,213704,,1797,1
1620713866907,213724,,1741,1
1620713866907,213744,,1748,1
1620713866907,213765,,1749,1
1620713866907,213785,,1744,1
1620713866907,213805,,1744,1
1620713866907,213825,,1711,1
1620713866907,213845,,1731,1
1620713866907,213865,,1747,1
1620713866907,213885,,1750,1
1620713866907,213905,,1747,1
1620713866907,213925,,1737,1
1620713866907,213945,,1744,1
1620713866907,213965,,1756,1
1620713866907,213986,,1761,1
1620713866907,214006,,1761,1
1620713866907,214026,,1744,1
1620713866907,214046,,1737,1
1620713867418,214066,,1674,1
1620713867418,214086,,1712,1
1620713867418,214106,,1760,1
1620713867418,214126,,1858,1
1620713867418,214146,,1826,1
1620713867418,214166,,1801,1
1620713867418,214186,,1762,1
1620713867418,214207,,1730,1
1620713867418,214227,,1733,1
1620713867418,214247,,1744,1
1620713867418,214267,,1850,1
1620713867418,214287,,1936,1
1620713867418,214307,,2014,1
1620713867418,214327,,2087,1
1620713867418,214347,,2085,1
1620713867418,214367,,2107,1
1620713867418,214387,,2081,1
1620713867418,214407,,2037,1
1620713867418,214428,,1977,1
1620713867418,214448,,1906,1
1620713867418,214468,,1898,1
1620713867418,214488,,1874,1
1620713867418,214508,,1855,1
1620713867418,214528,,1834,1
1620713867418,214548,,1782,1
1620713867921,214568,,1709,1
1620713867921,214588,,1762,1
1620713867921,214608,,1815,1
1620713867921,214628,,1933,1
1620713867921,214649,,1904,1
1620713867921,214669,,1894,1
1620713867921,214689,,1840,1
1620713867921,214709,,1793,1
1620713867921,214729,,1765,1
1620713867921,214749,,1712,1
1620713867921,214769,,1749,1
1620713867921,214789,,1765,1
1620713867921,214809,,1770,1
1620713867921,214829,,1767,1
1620713867921,214849,,1739,1
1620713867921,214869,,1763,1
1620713867921,214889,,1776,1
1620713867921,214909,,1772,1
1620713867921,214929,,1766,1
1620713867921,214949,,1754,1
1620713867921,214969,,1763,1
1620713867921,214989,,1776,1
1620713867921,215009,,1766,1
1620713867921,215029,,1761,1
1620713867921,215049,,1761,1
1620713868426,215069,,1693,1
1620713868426,215090,,1726,1
1620713868426,215110,,1799,1
1620713868426,215130,,1891,1
1620713868426,215150,,1872,1
1620713868426,215170,,1810,1
1620713868426,215190,,1803,1
1620713868426,215210,,1776,1
1620713868426,215230,,1754,1
1620713868426,215250,,1744,1
1620713868426,215270,,1747,1
1620713868426,215290,,1830,1
1620713868426,215311,,1911,1
1620713868426,215331,,1990,1
1620713868426,215351,,1981,1
1620713868426,215371,,2053,1
1620713868426,215391,,2144,1
1620713868426,215411,,2215,1
1620713868426,215431,,2149,1
1620713868426,215451,,2053,1
1620713868426,215471,,1938,1
1620713868426,215491,,1904,1
1620713868426,215511,,1873,1
1620713868426,215532,,1847,1
1620713868426,215552,,1832,1
1620713868918,215573,,1740,1
1620713868918,215593,,1792,1
1620713868918,215613,,1866,1
1620713868918,215633,,1990,1
1620713868918,215653,,2003,1
1620713868918,215673,,1926,1
1620713868918,215693,,1905,1
1620713868918,215713,,1873,1
1620713868918,215733,,1841,1
1620713868918,215754,,1821,1
1620713868918,215774,,1769,1
1620713868918,215794,,1812,1
1620713868918,215814,,1830,1
1620713868918,215834,,1825,1
1620713868918,215854,,1811,1
1620713868918,215874,,1770,1
1620713868918,215894,,1807,1
1620713868918,215914,,1818,1
1620713868918,215934,,1813,1
1620713868918,215954,,1811,1
1620713868918,215975,,1778,1
1620713868918,215995,,1801,1
1620713868918,216015,,1827,1
1620713868918,216035,,1829,1
1620713868918,216055,,1819,1
1620713869433,216075,,1728,1
1620713869433,216095,,1765,1
1620713869433,216115,,1839,1
1620713869433,216135,,1919,1
1620713869433,216155,,1886,1
1620713869433,216175,,1828,1
1620713869433,216195,,1782,1
1620713869433,216215,,1806,1
1620713869433,216235,,1849,1
1620713869433,216255,,1906,1
1620713869433,216275,,1974,1
1620713869433,216295,,2018,1
1620713869433,216315,,2085,1
1620713869433,216335,,2093,1
1620713869433,216355,,2063,1
1620713869433,216375,,2005,1
1620713869433,216395,,1930,1
1620713869433,216416,,1904,1
1620713869433,216436,,1869,1
1620713869433,216456,,1839,1
1620713869433,216476,,1810,1
1620713869433,216496,,1773,1
1620713869433,216516,,1789,1
1620713869433,216536,,1783,1
1620713869433,216556,,1783,1
1620713869931,216576,,1712,1
1620713869931,216596,,1763,1
1620713869931,216616,,1824,1
1620713869931,216637,,1963,1
1620713869931,216657,,1947,1
1620713869931,216677,,1878,1
1620713869931,216697,,1779,1
1620713869931,216717,,1770,1
1620713869931,216737,,1749,1
1620713869931,216757,,1735,1
1620713869931,216777,,1729,1
1620713869931,216797,,1703,1
1620713869931,216817,,1751,1
1620713869931,216837,,1778,1
1620713869931,216858,,1790,1
1620713869931,216878,,1792,1
1620713869931,216898,,1745,1
1620713869931,216918,,1787,1
1620713869931,216938,,1799,1
1620713869931,216958,,1792,1
1620713869931,216978,,1785,1
1620713869931,216998,,1779,1
1620713869931,217018,,1791,1
1620713869931,217038,,1808,1
1620713869931,217058,,1808,1
1620713870422,217078,,1743,1
1620713870422,217098,,1826,1
1620713870422,217118,,1941,1
1620713870422,217138,,2126,0
1620713870422,217158,,2181,0
1620713870422,217178,,2163,0
1620713870422,217198,,2129,0
1620713870422,217218,,2064,0
1620713870422,217238,,2020,0
1620713870422,217258,,1971,0
1620713870422,217278,,1920,0
1620713870422,217299,,1873,0
1620713870422,217319,,1842,0
1620713870422,217339,,1854,0
1620713870422,217359,,1858,0
1620713870422,217379,,1867,0
1620713870422,217399,,1876,0
1620713870422,217419,,1843,0
1620713870422,217439,,1901,0
1620713870422,217459,,1904,0
1620713870422,217479,,1894,0
1620713870422,217499,,1874,0
1620713870422,217520,,1835,0
1620713870422,217540,,1845,0
1620713870422,217560,,1829,0
1620713870936,217580,,1739,0
1620713870936,217600,,1756,0
1620713870936,217620,,1826,0
1620713870936,217640,,1910,0
1620713870936,217660,,1874,0
1620713870936,217680,,1819,0
1620713870936,217700,,1763,0
1620713870936,217720,,1698,0
1620713870936,217741,,1728,0
1620713870936,217761,,1742,0
1620713870936,217781,,1751,0
1620713870936,217801,,1757,0
1620713870936,217821,,1742,0
1620713870936,217841,,1783,0
1620713870936,217861,,1791,0
1620713870936,217881,,1783,0
1620713870936,217901,,1777,0
1620713870936,217921,,1744,0
1620713870936,217941,,1766,0
1620713870936,217962,,1777,0
1620713870936,217982,,1804,0
1620713870936,218002,,1845,0
1620713870936,218022,,1909,0
1620713870936,218042,,1999,0
1620713870936,218062,,2081,0
1620713871431,218082,,2027,0
1620713871431,218102,,2042,0
1620713871431,218122,,2082,0
1620713871431,218142,,2128,1
1620713871431,218162,,2079,1
1620713871431,218183,,1983,1
1620713871431,218203,,1911,1
1620713871431,218223,,1853,1
1620713871431,218243,,1808,1
1620713871431,218263,,1808,1
1620713871431,218283,,1798,1
1620713871431,218303,,1799,1
1620713871431,218323,,1806,1
1620713871431,218343,,1808,1
1620713871431,218363,,1849,1
1620713871431,218383,,1862,1
1620713871431,218404,,1871,1
1620713871431,218424,,1862,1
1620713871431,218444,,1837,1
1620713871431,218464,,1847,1
1620713871431,218484,,1843,1
1620713871431,218504,,1831,1
1620713871431,218524,,1813,1
1620713871431,218544,,1778,1
1620713871431,218564,,1798,1
1620713871929,218585,,1713,1
1620713871929,218605,,1727,1
1620713871929,218626,,1807,1
1620713871929,218646,,1856,1
1620713871929,218666,,1858,1
1620713871929,218686,,1814,1
1620713871929,218706,,1769,1
1620713871929,218726,,1741,1
1620713871929,218746,,1703,1
1620713871929,218766,,1753,1
1620713871929,218786,,1782,1
1620713871929,218806,,1809,1
1620713871929,218826,,1829,1
1620713871929,218847,,1808,1
1620713871929,218867,,1851,1
1620713871929,218887,,1857,1
1620713871929,218907,,1850,1
1620713871929,218927,,1869,1
1620713871929,218947,,1885,1
1620713871929,218967,,2005,1
1620713871929,218987,,2104,1
1620713871929,219007,,2169,1
1620713871929,219027,,2197,1
1620713871929,219047,,2154,1
1620713871929,219067,,2142,1
1620713872442,219087,,2032,1
1620713872442,219107,,2010,1
1620713872442,219127,,2017,1
1620713872442,219147,,2064,1
1620713872442,219167,,2010,1
1620713872442,219187,,1954,1
1620713872442,219207,,1890,1
1620713872442,219227,,1840,1
1620713872442,219247,,1808,1
1620713872442,219267,,1798,1
1620713872442,219288,,1821,1
1620713872442,219308,,1829,1
1620713872442,219328,,1840,1
1620713872442,219348,,1840,1
1620713872442,219368,,1832,1
1620713872442,219388,,1843,1
1620713872442,219408,,1829,1
1620713872442,219428,,1808,1
1620713872442,219448,,1791,1
1620713872442,219468,,1754,1
1620713872442,219488,,1755,1
1620713872442,219509,,1735,1
1620713872442,219529,,1715,1
1620713872442,219549,,1706,1
1620713872442,219569,,1680,1
1620713872939,219590,,1638,1
1620713872939,219610,,1674,1
1620713872939,219630,,1715,1
1620713872939,219650,,1820,1
1620713872939,219670,,1775,1
1620713872939,219690,,1746,1
1620713872939,219710,,1694,1
1620713872939,219731,,1648,1
1620713872939,219751,,1629,1
1620713872939,219771,,1604,1
1620713872939,219791,,1645,1
1620713872939,219811,,1661,1
1620713872939,219831,,1669,1
1620713872939,219851,,1675,1
1620713872939,219871,,1639,1
1620713872939,219891,,1677,1
1620713872939,219911,,1699,1
1620713872939,219931,,1737,1
1620713872939,219952,,1805,1
1620713872939,219972,,1854,1
1620713872939,219992,,1959,1
1620713872939,220012,,2010,1
1620713872939,220032,,2013,1
1620713872939,220052,,1984,1
1620713872939,220072,,1915,1
1620713865906,212558,,1651,1
1620713865906,212578,,1671,1
1620713865906,212598,,1726,1
1620713865906,212618,,1828,1
1620713865906,212638,,1822,1
1620713865906,212659,,1783,1
1620713865906,212679,,1750,1
1620713865906,212699,,1711,1
1620713865906,212719,,1740,1
1620713865906,212739,,1757,1
1620713865906,212759,,1774,1
1620713865906,212779,,1783,1
1620713865906,212799,,1785,1
1620713865906,212819,,1803,1
1620713865906,212839,,1827,1
1620713865906,212859,,1838,1
1620713865906,212880,,1840,1
1620713865906,212900,,1811,1
1620713865906,212920,,1808,1
1620713865906,212940,,1809,1
1620713865906,212960,,1805,1
1620713865906,212980,,1792,1
1620713865906,213000,,1789,1
1620713865906,213020,,1776,1
1620713865906,213040,,1793,1
1620713866407,213061,,1712,1
1620713866407,213081,,1741,1
1620713866407,213102,,1821,1
1620713866407,213122,,1885,1
1620713866407,213142,,1891,1
1620713866407,213162,,1852,1
1620713866407,213182,,1814,1
1620713866407,213202,,1801,1
1620713866407,213222,,1813,1
1620713866407,213242,,1903,1
1620713866407,213262,,1999,1
1620713866407,213282,,2077,1
1620713866407,213302,,2135,1
1620713866407,213323,,2141,1
1620713866407,213343,,2159,1
1620713866407,213363,,2132,1
1620713866407,213383,,2087,1
1620713866407,213403,,2031,1
1620713866407,213423,,1966,1
1620713866407,213443,,1963,1
1620713866407,213463,,1937,1
1620713866407,213483,,1914,1
1620713866407,213503,,1887,1
1620713866407,213523,,1844,1
1620713866407,213544,,1867,1
1620713866907,213564,,1791,1
1620713866907,213584,,1819,1
1620713866907,213604,,1901,1
1620713866907,213624,,1937,1
1620713866907,213644,,1949,1
1620713866907,213664,,1904,1
1620713866907,213684,,1848,1
1620713866907,213704,,1797,1
1620713866907,213724,,1741,1
1620713866907,213744,,1748,1
1620713866907,213765,,1749,1
1620713866907,213785,,1744,1
1620713866907,213805,,1744,1
1620713866907,213825,,1711,1
1620713866907,213845,,1731,1
1620713866907,213865,,1747,1
1620713866907,213885,,1750,1
1620713866907,213905,,1747,1
1620713866907,213925,,1737,1
1620713866907,213945,,1744,1
1620713866907,213965,,1756,1
