localTime,remoteTime,label,bvp,signalOK
1620713838149,105706,,2155,1
1620713838149,105726,,2409,1
1620713838149,105746,,2538,1
1620713838149,105766,,2471,1
1620713838149,105786,,2331,1
1620713838149,105806,,2181,1
1620713838149,105827,,2011,1
1620713838149,105847,,1923,1
1620713838149,105867,,1827,1
1620713838149,105887,,1744,1
1620713838149,105907,,1697,1
1620713838149,105927,,1682,1
1620713838149,105947,,1717,1
1620713838149,105967,,1755,1
1620713838149,105987,,1787,1
1620713838149,106007,,1810,1
1620713838149,106027,,1825,1
1620713838149,106048,,1852,1
1620713838149,106068,,1843,1
1620713838149,106088,,1808,1
1620713838149,106108,,1771,1
1620713838149,106128,,1744,1
1620713838149,106148,,1734,1
1620713838149,106168,,1726,1
1620713838653,106188,,1698,1
1620713838653,106208,,1781,1
1620713838653,106228,,1874,1
1620713838653,106248,,1904,1
1620713838653,106269,,1985,1
1620713838653,106289,,2098,1
1620713838653,106309,,2224,1
1620713838653,106329,,2309,1
1620713838653,106349,,2332,1
1620713838653,106369,,2306,1
1620713838653,106389,,2199,1
1620713838653,106409,,2070,1
1620713838653,106429,,1939,1
1620713838653,106449,,1815,1
1620713838653,106469,,1789,1
1620713838653,106490,,1729,1
1620713838653,106510,,1703,1
1620713838653,106530,,1712,1
1620713838653,106550,,1731,1
1620713838653,106570,,1826,1
1620713838653,106590,,1849,1
1620713838653,106610,,1855,1
1620713838653,106630,,1834,1
1620713838653,106650,,1783,1
1620713838653,106671,,1833,1
1620713839155,106692,,1808,1
1620713839155,106713,,1858,1
1620713839155,106733,,1897,1
1620713839155,106753,,1765,1
1620713839155,106773,,1691,1
1620713839155,106793,,1597,1
1620713839155,106813,,1593,1
1620713839155,106833,,1706,1
1620713839155,106853,,1882,1
1620713839155,106873,,2170,1
1620713839155,106893,,2331,1
1620713839155,106913,,2399,1
1620713839155,106934,,2366,1
1620713839155,106954,,2256,1
1620713839155,106974,,2160,1
1620713839155,106994,,2015,1
1620713839155,107014,,1876,1
1620713839155,107034,,1773,1
1620713839155,107054,,1712,1
1620713839155,107074,,1713,1
1620713839155,107094,,1745,1
1620713839155,107114,,1763,1
1620713839155,107134,,1798,1
1620713839155,107155,,1824,1
1620713839155,107175,,1855,1
1620713839656,107195,,1878,1
1620713839656,107215,,1957,1
1620713839656,107235,,2006,1
1620713839656,107255,,1913,1
1620713839656,107275,,1773,1
1620713839656,107295,,1663,1
1620713839656,107315,,1584,1
1620713839656,107335,,1558,1
1620713839656,107355,,1564,1
1620713839656,107376,,1630,1
1620713839656,107396,,1785,1
1620713839656,107416,,1982,1
1620713839656,107436,,2190,1
1620713839656,107456,,2362,1
1620713839656,107476,,2421,1
1620713839656,107496,,2451,1
1620713839656,107516,,2325,1
1620713839656,107536,,2173,1
1620713839656,107556,,2011,1
1620713839656,107576,,1853,1
1620713839656,107597,,1789,1
1620713839656,107617,,1722,1
1620713839656,107637,,1693,1
1620713839656,107657,,1702,1
1620713839656,107677,,1713,1
1620713840158,107698,,1835,1
1620713840158,107718,,1967,1
1620713840158,107738,,2077,1
1620713840158,107758,,1999,1
1620713840158,107778,,1839,1
1620713840158,107798,,1782,1
1620713840158,107819,,1686,1
1620713840158,107839,,1638,1
1620713840158,107859,,1626,1
1620713840158,107879,,1610,1
1620713840158,107899,,1680,1
1620713840158,107919,,1709,1
1620713840158,107939,,1786,1
1620713840158,107959,,1919,1
1620713840158,107979,,2080,1
1620713840158,107999,,2303,1
1620713840158,108019,,2409,1
1620713840158,108040,,2414,1
1620713840158,108060,,2342,1
1620713840158,108080,,2206,1
1620713840158,108100,,2102,1
1620713840158,108120,,1953,1
1620713840158,108140,,1833,1
1620713840158,108160,,1740,1
1620713840158,108180,,1696,1
1620713840672,108200,,1703,1
1620713840672,108220,,1841,1
1620713840672,108240,,1977,1
1620713840672,108261,,1969,1
1620713840672,108281,,1882,1
1620713840672,108301,,1910,1
1620713840672,108321,,1943,1
1620713840672,108341,,1845,1
1620713840672,108361,,1712,1
1620713840672,108381,,1626,1
1620713840672,108401,,1599,1
1620713840672,108421,,1605,1
1620713840672,108441,,1607,1
1620713840672,108461,,1632,1
1620713840672,108482,,1707,1
1620713840672,108502,,1872,1
1620713840672,108522,,2095,1
1620713840672,108542,,2269,1
1620713840672,108562,,2403,1
1620713840672,108582,,2445,1
1620713840672,108602,,2397,1
1620713840672,108622,,2316,1
1620713840672,108642,,2166,1
1620713840672,108662,,2022,1
1620713840672,108682,,1893,1
1620713841165,108702,,1795,1
1620713841165,108722,,1858,1
1620713841165,108742,,1889,1
1620713841165,108762,,1911,1
1620713841165,108782,,1808,1
1620713841165,108802,,1712,1
1620713841165,108822,,1753,1
1620713841165,108842,,1750,1
1620713841165,108862,,1739,1
1620713841165,108882,,1744,1
1620713841165,108902,,1717,1
1620713841165,108923,,1770,1
1620713841165,108943,,1746,1
1620713841165,108963,,1727,1
1620713841165,108983,,1701,1
1620713841165,109003,,1682,1
1620713841165,109023,,1727,1
1620713841165,109043,,1765,1
1620713841165,109063,,1869,1
1620713841165,109083,,2036,1
1620713841165,109103,,2224,1
1620713841165,109123,,2404,1
1620713841165,109144,,2471,1
1620713841165,109164,,2428,1
1620713841165,109184,,2320,1
1620713841674,109204,,2192,1
1620713841674,109224,,2156,1
1620713841674,109244,,2128,1
1620713841674,109264,,1973,1
1620713841674,109284,,1797,1
1620713841674,109304,,1678,1
1620713841674,109324,,1641,1
1620713841674,109344,,1655,1
1620713841674,109365,,1683,1
1620713841674,109385,,1737,1
1620713841674,109405,,1776,1
1620713841674,109425,,1823,1
1620713841674,109445,,1849,1
1620713841674,109465,,1821,1
1620713841674,109485,,1785,1
1620713841674,109505,,1746,1
1620713841674,109525,,1719,1
1620713841674,109545,,1717,1
1620713841674,109565,,1690,1
1620713841674,109586,,1673,1
1620713841674,109606,,1687,1
1620713841674,109626,,1782,1
1620713841674,109646,,1975,1
1620713841674,109666,,2173,1
1620713841674,109686,,2336,1
1620713842173,109706,,2426,1
1620713842173,109726,,2533,1
1620713842173,109746,,2529,1
1620713842173,109766,,2373,1
1620713842173,109786,,2116,1
1620713842173,109807,,1901,1
1620713842173,109827,,1713,1
1620713842173,109847,,1675,1
1620713842173,109867,,1631,1
1620713842173,109887,,1633,1
1620713842173,109907,,1669,1
1620713842173,109927,,1691,1
1620713842173,109947,,1808,1
1620713842173,109967,,1841,1
1620713842173,109987,,1851,1
1620713842173,110007,,1847,1
1620713842173,110028,,1799,1
1620713842173,110048,,1823,1
1620713842173,110068,,1788,1
1620713842173,110088,,1744,1
1620713842173,110108,,1707,1
1620713842173,110128,,1664,1
1620713842173,110148,,1698,1
1620713842173,110168,,1707,1
1620713842173,110188,,1732,1
1620713842674,110208,,1819,1
1620713842674,110228,,2099,1
1620713842674,110249,,2375,1
1620713842674,110269,,2525,1
1620713842674,110289,,2451,1
1620713842674,110309,,2314,1
1620713842674,110329,,2158,1
1620713842674,110349,,2032,1
1620713842674,110369,,1909,1
1620713842674,110389,,1799,1
1620713842674,110409,,1728,1
1620713842674,110429,,1702,1
1620713842674,110449,,1719,1
1620713842674,110470,,1765,1
1620713842674,110490,,1802,1
1620713842674,110510,,1829,1
1620713842674,110530,,1848,1
1620713842674,110550,,1863,1
1620713842674,110570,,1885,1
1620713842674,110590,,1856,1
1620713842674,110610,,1811,1
1620713842674,110630,,1776,1
1620713842674,110650,,1740,1
1620713842674,110670,,1735,1
1620713842674,110691,,1703,1
1620713843176,110712,,1723,1
1620713843176,110732,,1843,1
1620713843176,110752,,1977,1
1620713843176,110772,,2081,1
1620713843176,110792,,2139,1
1620713843176,110812,,2201,1
1620713843176,110832,,2240,1
1620713843176,110852,,2202,1
1620713843176,110872,,2224,1
1620713843176,110892,,2131,1
1620713843176,110913,,2002,1
1620713843176,110933,,1887,1
1620713843176,110953,,1769,1
1620713843176,110973,,1761,1
1620713843176,110993,,1723,1
1620713843176,111013,,1710,1
1620713843176,111033,,1723,1
1620713843176,111053,,1728,1
1620713843176,111073,,1821,1
1620713843176,111093,,1839,1
1620713843176,111113,,1834,1
1620713843176,111134,,1815,1
1620713843176,111154,,1759,1
1620713843176,111174,,1789,1
1620713843176,111194,,1755,1
1620713843705,111214,,1715,1
1620713843705,111234,,1803,1
1620713843705,111254,,1873,1
1620713843705,111274,,1874,1
1620713843705,111294,,1782,1
1620713843705,111314,,1779,1
1620713843705,111334,,1894,1
1620713843705,111355,,2059,1
1620713843705,111375,,2238,1
1620713843705,111395,,2310,0
1620713843705,111415,,2287,0
1620713843705,111435,,2207,0
1620713843705,111455,,2105,0
1620713843705,111475,,2018,0
1620713843705,111495,,1922,0
1620713843705,111515,,1815,0
1620713843705,111535,,1744,0
1620713843705,111555,,1709,0
1620713843705,111576,,1719,0
1620713843705,111596,,1757,0
1620713843705,111616,,1778,0
1620713843705,111636,,1797,0
1620713843705,111656,,1803,0
1620713843705,111676,,1808,0
1620713843705,111696,,1813,0
1620713844189,111716,,1777,0
1620713844189,111736,,1845,0
1620713844189,111756,,1903,0
1620713844189,111776,,1838,0
1620713844189,111797,,1729,0
1620713844189,111817,,1618,0
1620713844189,111837,,1582,0
1620713844189,111857,,1610,0
1620713844189,111877,,1740,0
1620713844189,111897,,1966,0
1620713844189,111917,,2148,0
1620713844189,111937,,2271,0
1620713844189,111957,,2318,0
1620713844189,111977,,2262,0
1620713844189,111997,,2224,0
1620713844189,112018,,2111,0
1620713844189,112038,,1971,0
1620713844189,112058,,1874,0
1620713844189,112078,,1780,0
1620713844189,112098,,1799,0
1620713844189,112118,,1753,0
1620713844189,112138,,1713,0
1620713844189,112158,,1710,0
1620713844189,112178,,1707,0
1620713844189,112198,,1783,0
1620713844692,112218,,1803,0
1620713844692,112239,,1907,0
1620713844692,112259,,1968,0
1620713844692,112279,,1887,0
1620713844692,112299,,1782,0
1620713844692,112319,,1665,0
1620713844692,112339,,1584,0
1620713844692,112359,,1553,0
1620713844692,112379,,1559,0
1620713844692,112399,,1616,1
1620713844692,112419,,1670,1
1620713844692,112439,,1764,1
1620713844692,112460,,1914,1
1620713844692,112480,,2081,1
1620713844692,112500,,2239,0
1620713844692,112520,,2354,0
1620713844692,112540,,2338,0
1620713844692,112560,,2249,0
1620713844692,112580,,2128,0
1620713844692,112600,,2014,0
1620713844692,112620,,1919,0
1620713844692,112640,,1827,0
1620713844692,112660,,1757,0
1620713844692,112681,,1712,0
1620713844692,112701,,1712,0
1620713845184,112722,,1745,0
1620713845184,112742,,1867,0
1620713845184,112762,,1956,0
1620713845184,112782,,1936,0
1620713845184,112802,,1830,0
1620713845184,112822,,1763,0
1620713845184,112842,,1689,0
1620713845184,112862,,1640,0
1620713845184,112882,,1627,0
1620713845184,112903,,1641,0
1620713845184,112923,,1680,0
1620713845184,112943,,1680,0
1620713845184,112963,,1680,0
1620713845184,112983,,1689,0
1620713845184,113003,,1687,0
1620713845184,113023,,1765,0
1620713845184,113043,,1834,0
1620713845184,113063,,1942,0
1620713845184,113083,,2083,0
1620713845184,113103,,2160,0
1620713845184,113124,,2290,0
1620713845184,113144,,2269,0
1620713845184,113164,,2188,0
1620713845184,113184,,2082,0
1620713845184,113204,,1935,0
1620713845692,113224,,1911,0
1620713845692,113244,,1932,0
1620713845692,113264,,1936,0
1620713845692,113284,,1858,0
1620713845692,113304,,1712,0
1620713845692,113324,,1674,0
1620713845692,113345,,1659,0
1620713845692,113365,,1664,0
1620713845692,113385,,1694,0
1620713845692,113405,,1723,0
1620713845692,113425,,1795,0
1620713845692,113445,,1811,0
1620713845692,113465,,1790,0
1620713845692,113485,,1764,0
1620713845692,113505,,1744,0
1620713845692,113526,,1744,0
1620713845692,113546,,1735,0
1620713845692,113567,,1718,0
1620713845692,113587,,1705,0
1620713845692,113607,,1702,0
1620713845692,113627,,1760,0
1620713845692,113647,,1849,0
1620713845692,113667,,1971,0
1620713845692,113687,,2109,0
1620713845692,113707,,2199,0
1620713846188,113727,,2238,0
1620713846188,113747,,2318,0
1620713846188,113767,,2314,0
1620713846188,113788,,2171,0
1620713846188,113808,,1941,0
1620713846188,113828,,1778,0
1620713846188,113848,,1682,0
1620713846188,113868,,1622,0
1620713846188,113888,,1618,0
1620713846188,113908,,1649,0
1620713846188,113928,,1714,0
1620713846188,113948,,1808,0
1620713846188,113968,,1843,0
1620713846188,113988,,1856,0
1620713846188,114009,,1858,0
1620713846188,114029,,1805,0
1620713846188,114049,,1872,0
1620713846188,114069,,1922,0
1620713846188,114089,,1920,0
1620713846188,114109,,1889,0
1620713846188,114129,,1854,0
1620713846188,114149,,1776,0
1620713846188,114169,,1637,0
1620713846188,114189,,1559,0
1620713846188,114209,,1585,0
1620713846699,114229,,1690,0
1620713846699,114249,,1966,0
1620713846699,114269,,2247,0
1620713846699,114289,,2337,0
1620713846699,114309,,2279,0
1620713846699,114329,,2148,0
1620713846699,114349,,2096,0
1620713846699,114369,,1971,0
1620713846699,114389,,1868,0
1620713846699,114409,,1789,0
1620713846699,114429,,1733,0
1620713846699,114450,,1749,0
1620713846699,114470,,1751,0
1620713846699,114490,,1762,0
1620713846699,114510,,1789,0
1620713846699,114530,,1811,0
1620713846699,114550,,1860,0
1620713846699,114570,,1872,0
1620713846699,114590,,1847,0
1620713846699,114610,,1814,0
1620713846699,114630,,1787,0
1620713846699,114650,,1781,0
1620713846699,114671,,1764,0
1620713846699,114691,,1731,0
1620713846699,114711,,1712,0
1620713847194,114732,,1725,0
1620713847194,114752,,1839,0
1620713847194,114772,,1936,0
1620713847194,114792,,1938,0
1620713847194,114812,,1942,0
1620713847194,114832,,2015,0
1620713847194,114852,,2118,0
1620713847194,114872,,2199,0
1620713847194,114893,,2195,0
1620713847194,114913,,2143,0
1620713847194,114933,,2061,0
1620713847194,114953,,1983,0
1620713847194,114973,,1925,0
1620713847194,114993,,1844,0
1620713847194,115013,,1787,0
1620713847194,115033,,1755,0
1620713847194,115053,,1748,0
1620713847194,115073,,1787,0
1620713847194,115093,,1795,0
1620713847194,115114,,1805,0
1620713847194,115134,,1821,0
1620713847194,115154,,1811,0
1620713847194,115174,,1857,0
1620713847194,115194,,1829,0
1620713847194,115214,,1787,0
1620713847700,115235,,1777,0
1620713847700,115255,,1869,0
1620713847700,115275,,1947,0
1620713847700,115295,,1871,0
1620713847700,115315,,1731,0
1620713847700,115336,,1646,0
1620713847700,115356,,1621,0
1620713847700,115376,,1773,0
1620713847700,115396,,1925,0
1620713847700,115416,,2096,0
1620713847700,115436,,2231,0
1620713847700,115456,,2274,0
1620713847700,115476,,2335,0
1620713847700,115496,,2261,0
1620713847700,115516,,2149,0
1620713847700,115536,,2030,0
1620713847700,115557,,1904,0
1620713847700,115577,,1851,0
1620713847700,115597,,1794,0
1620713847700,115617,,1758,0
1620713847700,115637,,1739,0
1620713847700,115657,,1744,0
1620713847700,115677,,1801,0
1620713847700,115697,,1833,0
1620713847700,115717,,1840,0
1620713848223,115738,,1851,0
1620713848223,115758,,1935,0
1620713848223,115779,,2003,0
1620713848223,115799,,1936,0
1620713848223,115819,,1793,0
1620713848223,115839,,1680,0
1620713848223,115859,,1617,0
1620713848223,115879,,1622,1
1620713848223,115899,,1643,1
1620713848223,115919,,1665,1
1620713848223,115939,,1723,1
1620713848223,115959,,1844,1
1620713848223,115979,,2022,1
1620713848223,116000,,2189,1
1620713848223,116020,,2288,1
1620713848223,116040,,2311,1
1620713848223,116060,,2269,1
1620713848223,116080,,2182,1
1620713848223,116100,,2098,1
1620713848223,116120,,1978,1
1620713848223,116140,,1872,1
1620713848223,116160,,1786,1
1620713848223,116180,,1718,1
1620713848223,116200,,1781,1
1620713848223,116221,,1779,1
1620713844692,112218,,1803,0
1620713844692,112239,,1907,0
1620713844692,112259,,1968,0
1620713844692,112279,,1887,0
1620713844692,112299,,1782,0
1620713844692,112319,,1665,0
1620713844692,112339,,1584,0
1620713844692,112359,,1553,0
1620713844692,112379,,1559,0
1620713844692,112399,,1616,1
1620713844692,112419,,1670,1
1620713844692,112439,,1764,1
1620713844692,112460,,1914,1
1620713844692,112480,,2081,1
1620713844692,112500,,2239,0
1620713844692,112520,,2354,0
1620713844692,112540,,2338,0
1620713844692,112560,,2249,0
1620713844692,112580,,2128,0
1620713844692,112600,,2014,0
1620713844692,112620,,1919,0
1620713844692,112640,,1827,0
1620713844692,112660,,1757,0
1620713844692,112681,,1712,0
1620713844692,112701,,1712,0
1620713845184,112722,,1745,0
1620713845184,112742,,1867,0
1620713845184,112762,,1956,0
1620713845184,112782,,1936,0
1620713845184,112802,,1830,0
1620713845184,112822,,1763,0
1620713845184,112842,,1689,0
1620713845184,112862,,1640,0
1620713845184,112882,,1627,0
1620713845184,112903,,1641,0
1620713845184,112923,,1680,0
1620713845184,112943,,1680,0
1620713845184,112963,,1680,0
1620713845184,112983,,1689,0
1620713845184,113003,,1687,0
1620713845184,113023,,1765,0
1620713845184,113043,,1834,0
1620713845184,113063,,1942,0
1620713845184,113083,,2083,0
1620713845184,113103,,2160,0
1620713845184,113124,,2290,0
1620713845184,113144,,2269,0
1620713845184,113164,,2188,0
1620713845184,113184,,2082,0
1620713845184,113204,,1935,0
1620713845692,113224,,1911,0
1620713845692,113244,,1932,0
1620713845692,113264,,1936,0
1620713845692,113284,,1858,0
1620713845692,113304,,1712,0
1620713845692,113324,,1674,0
1620713845692,113345,,1659,0
1620713845692,113365,,1664,0
1620713845692,113385,,1694,0
1620713845692,113405,,1723,0
1620713845692,113425,,1795,0
1620713845692,113445,,1811,0
1620713845692,113465,,1790,0
1620713845692,113485,,1764,0
1620713845692,113505,,1744,0
1620713845692,113526,,1744,0
1620713845692,113546,,1735,0
1620713845692,113567,,1718,0
1620713845692,113587,,1705,0
1620713845692,113607,,1702,0
1620713845692,113627,,1760,0
1620713845692,113647,,1849,0
1620713845692,113667,,1971,0
1620713845692,113687,,2109,0
1620713845692,113707,,2199,0
1620713846188,113727,,2238,0
1620713846188,113747,,2318,0
1620713846188,113767,,2314,0
1620713846188,113788,,2171,0
1620713846188,113808,,1941,0
1620713846188,113828,,1778,0
1620713846188,113848,,1682,0
1620713846188,113868,,1622,0
1620713846188,113888,,1618,0
1620713846188,113908,,1649,0
1620713846188,113928,,1714,0
1620713846188,113948,,1808,0
1620713846188,113968,,1843,0
1620713846188,113988,,1856,0
1620713846188,114009,,1858,0
1620713846188,114029,,1805,0
1620713846188,114049,,1872,0
1620713846188,114069,,1922,0
1620713846188,114089,,1920,0
1620713846188,114109,,1889,0
1620713846188,114129,,1854,0
1620713846188,114149,,1776,0
1620713846188,114169,,1637,0
1620713846188,114189,,1559,0
1620713846188,114209,,1585,0
1620713846699,114229,,1690,0
1620713846699,114249,,1966,0
1620713846699,114269,,2247,0
1620713846699,114289,,2337,0
1620713846699,114309,,2279,0
1620713846699,114329,,2148,0
1620713846699,114349,,2096,0
1620713846699,114369,,1971,0
1620713846699,114389,,1868,0
1620713846699,114409,,1789,0
1620713846699,114429,,1733,0
1620713846699,114450,,1749,0
1620713846699,114470,,1751,0
1620713846699,114490,,1762,0
1620713846699,114510,,1789,0
1620713846699,114530,,1811,0
1620713846699,114550,,1860,0
1620713846699,114570,,1872,0
1620713846699,114590,,1847,0
1620713846699,114610,,1814,0
1620713846699,114630,,1787,0
1620713846699,114650,,1781,0
1620713846699,114671,,1764,0
1620713846699,114691,,1731,0
1620713846699,114711,,1712,0
1620713847194,114732,,1725,0
1620713847194,114752,,1839,0
1620713847194,114772,,1936,0
1620713847194,114792,,1938,0
1620713847194,114812,,1942,0
1620713847194,114832,,2015,0
1620713847194,114852,,2118,0
1620713847194,114872,,2199,0
1620713847194,114893,,2195,0
1620713847194,114913,,2143,0
1620713847194,114933,,2061,0
1620713847194,114953,,1983,0
1620713847194,114973,,1925,0
1620713847194,114993,,1844,0
1620713847194,115013,,1787,0
1620713847194,115033,,1755,0
1620713847194,115053,,1748,0
1620713847194,115073,,1787,0
1620713847194,115093,,1795,0
1620713847194,115114,,1805,0
1620713847194,115134,,1821,0
1620713847194,115154,,1811,0
1620713847194,115174,,1857,0
1620713847194,115194,,1829,0
1620713847194,115214,,1787,0
1620713847700,115235,,1777,0
1620713847700,115255,,1869,0
1620713847700,115275,,1947,0
1620713847700,115295,,1871,0
1620713847700,115315,,1731,0
1620713847700,115336,,1646,0
1620713847700,115356,,1621,0
1620713847700,115376,,1773,0
1620713847700,115396,,1925,0
1620713847700,115416,,2096,0
1620713847700,115436,,2231,0
1620713847700,115456,,2274,0
1620713847700,115476,,2335,0
1620713847700,115496,,2261,0
1620713847700,115516,,2149,0
1620713847700,115536,,2030,0
1620713847700,115557,,1904,0
1620713847700,115577,,1851,0
1620713847700,115597,,1794,0
1620713847700,115617,,1758,0
1620713847700,115637,,1739,0
1620713847700,115657,,1744,0
1620713847700,115677,,1801,0
1620713847700,115697,,1833,0
1620713847700,115717,,1840,0
1620713848223,115738,,1851,0
1620713848223,115758,,1935,0
1620713848223,115779,,2003,0
1620713848223,115799,,1936,0
1620713848223,115819,,1793,0
1620713848223,115839,,1680,0
1620713848223,115859,,1617,0
1620713848223,115879,,1622,1
1620713848223,115899,,1643,1
1620713848223,115919,,1665,1
1620713848223,115939,,1723,1
1620713848223,115959,,1844,1
1620713848223,115979,,2022,1
1620713848223,116000,,2189,1
1620713848223,116020,,2288,1
1620713848223,116040,,2311,1
1620713848223,116060,,2269,1
1620713848223,116080,,2182,1
1620713848223,116100,,2098,1
1620713848223,116120,,1978,1
1620713848223,116140,,1872,1
1620713848223,116160,,1786,1
1620713848223,116180,,1718,1
1620713848223,116200,,1781,1
1620713848223,116221,,1779,1
1620713848711,116242,,1809,1
1620713848711,116262,,1936,1
1620713848711,116282,,2029,1
1620713848711,116302,,1995,1
1620713848711,116322,,1871,1
1620713848711,116342,,1773,1
1620713848711,116362,,1708,1
1620713848711,116382,,1665,1
1620713848711,116402,,1697,1
1620713848711,116422,,1693,1
1620713848711,116443,,1699,1
1620713848711,116463,,1705,1
1620713848711,116483,,1709,1
1620713848711,116503,,1811,1
1620713848711,116523,,1915,1
1620713848711,116543,,2061,1
1620713848711,116563,,2193,1
1620713848711,116583,,2256,1
1620713848711,116603,,2350,1
1620713848711,116623,,2293,1
1620713848711,116643,,2187,1
1620713848711,116664,,2047,1
1620713848711,116684,,1904,1
1620713848711,116704,,1872,1
1620713848711,116724,,1807,1
1620713849212,116744,,1765,1
1620713849212,116764,,1857,1
1620713849212,116784,,1945,1
1620713849212,116804,,1971,1
1620713849212,116824,,1894,1
1620713849212,116844,,1809,1
1620713849212,116864,,1767,1
1620713849212,116885,,1747,1
1620713849212,116905,,1766,1
1620713849212,116925,,1771,1
1620713849212,116945,,1745,1
1620713849212,116965,,1734,1
1620713849212,116985,,1731,1
1620713849212,117005,,1747,1
1620713849212,117025,,1757,1
1620713849212,117045,,1776,1
1620713849212,117065,,1844,1
1620713849212,117085,,1978,1
1620713849212,117106,,2166,1
1620713849212,117126,,2325,1
1620713849212,117146,,2355,1
1620713849212,117166,,2320,1
1620713849212,117186,,2224,1
1620713849212,117206,,2113,1
1620713849212,117226,,2010,1
1620713849706,117246,,1905,1
1620713849706,117266,,1910,1
1620713849706,117286,,1947,1
1620713849706,117306,,1834,1
1620713849706,117327,,1823,1
1620713849706,117347,,1851,1
1620713849706,117367,,1878,1
1620713849706,117387,,1901,1
1620713849706,117407,,1929,1
1620713849706,117427,,1862,1
1620713849706,117447,,1730,1
1620713849706,117467,,1648,1
1620713849706,117487,,1613,1
1620713849706,117507,,1597,1
1620713849706,117527,,1660,1
1620713849706,117548,,1683,1
1620713849706,117568,,1710,1
1620713849706,117588,,1751,1
1620713849706,117608,,1798,1
1620713849706,117628,,1985,1
1620713849706,117648,,2144,1
1620713849706,117668,,2272,1
1620713849706,117688,,2334,1
1620713849706,117708,,2306,1
1620713849706,117728,,2303,1
1620713850214,117749,,2199,1
1620713850214,117770,,2189,1
1620713850214,117790,,2156,1
1620713850214,117810,,1948,1
1620713850214,117830,,1825,1
1620713850214,117850,,1706,1
1620713850214,117870,,1648,1
1620713850214,117890,,1648,1
1620713850214,117910,,1686,1
1620713850214,117930,,1776,1
1620713850214,117950,,1824,1
1620713850214,117970,,1841,1
1620713850214,117991,,1850,1
1620713850214,118011,,1838,1
1620713850214,118031,,1839,1
1620713850214,118051,,1810,1
1620713850214,118071,,1770,1
1620713850214,118091,,1734,1
1620713850214,118111,,1712,1
1620713850214,118131,,1727,1
1620713850214,118151,,1767,1
1620713850214,118171,,1856,1
1620713850214,118191,,2000,1
1620713850214,118212,,2163,1
1620713850214,118232,,2314,1
1620713850713,118252,,2380,1
1620713850713,118272,,2448,1
1620713850713,118292,,2430,1
1620713850713,118312,,2279,1
1620713850713,118332,,2043,1
1620713850713,118352,,1869,1
1620713850713,118372,,1724,1
1620713850713,118392,,1648,1
1620713850713,118412,,1627,1
1620713850713,118433,,1615,1
1620713850713,118453,,1763,1
1620713850713,118473,,1797,1
1620713850713,118493,,1815,1
1620713850713,118513,,1830,1
1620713850713,118533,,1834,1
1620713850713,118553,,1871,1
1620713850713,118573,,1839,1
1620713850713,118593,,1805,1
1620713850713,118613,,1776,1
1620713850713,118633,,1723,1
1620713850713,118654,,1748,1
1620713850713,118674,,1719,1
1620713850713,118694,,1712,1
1620713850713,118714,,1745,1
1620713850713,118734,,1819,1
1620713851218,118754,,2047,1
1620713851218,118774,,2302,1
1620713851218,118794,,2475,1
1620713851218,118814,,2470,1
1620713851218,118834,,2275,1
1620713851218,118854,,2160,1
1620713851218,118875,,2000,1
1620713851218,118895,,1863,1
1620713851218,118915,,1771,1
1620713851218,118935,,1698,1
1620713851218,118955,,1717,1
1620713851218,118975,,1719,1
1620713851218,118995,,1738,1
1620713851218,119015,,1763,1
1620713851218,119035,,1799,1
1620713851218,119056,,1856,1
1620713851218,119076,,1863,1
1620713851218,119097,,1847,1
1620713851218,119117,,1822,1
1620713851218,119137,,1785,1
1620713851218,119157,,1775,1
1620713851218,119177,,1745,1
1620713851218,119197,,1715,1
1620713851218,119217,,1699,1
1620713851218,119237,,1690,1
1620713851730,119258,,1714,1
1620713851730,119278,,1845,1
1620713851730,119298,,2000,1
1620713851730,119319,,2087,1
1620713851730,119339,,2118,1
1620713851730,119359,,2172,1
1620713851730,119379,,2209,1
1620713851730,119399,,2178,1
1620713851730,119419,,2109,1
1620713851730,119439,,2016,1
1620713851730,119459,,1936,1
1620713851730,119479,,1881,1
1620713851730,119499,,1797,1
1620713851730,119519,,1744,1
1620713851730,119540,,1723,1
1620713851730,119560,,1740,1
1620713851730,119580,,1793,1
1620713851730,119600,,1814,1
1620713851730,119620,,1835,1
1620713851730,119640,,1839,1
1620713851730,119660,,1822,1
1620713851730,119680,,1840,1
1620713851730,119700,,1808,1
1620713851730,119720,,1775,1
1620713851730,119740,,1742,1
1620713852225,119760,,1727,1
1620713852225,119780,,1819,1
1620713852225,119800,,1883,1
1620713852225,119820,,1854,1
1620713852225,119840,,1762,1
1620713852225,119860,,1730,1
1620713852225,119880,,1886,1
1620713852225,119900,,2016,1
1620713852225,119920,,2134,1
1620713852225,119940,,2199,1
1620713852225,119960,,2195,1
1620713852225,119981,,2191,1
1620713852225,120001,,2103,1
1620713852225,120021,,1984,1
1620713852225,120041,,1878,1
1620713852225,120061,,1791,1
1620713852225,120081,,1777,1
1620713852225,120101,,1760,1
1620713852225,120121,,1756,1
1620713852225,120141,,1765,1
1620713852225,120161,,1782,1
1620713852225,120181,,1835,1
1620713852225,120202,,1851,1
1620713852225,120222,,1835,1
1620713852225,120242,,1812,1
1620713852731,120263,,1791,1
1620713852731,120283,,1870,1
1620713852731,120303,,1937,1
1620713852731,120323,,1851,1
1620713852731,120343,,1728,1
1620713852731,120363,,1646,1
1620713852731,120383,,1632,1
1620713852731,120403,,1680,1
1620713852731,120424,,1781,1
1620713852731,120444,,1935,1
1620713852731,120464,,2097,1
1620713852731,120484,,2241,0
1620713852731,120504,,2304,0
1620713852731,120524,,2269,0
1620713852731,120544,,2174,0
1620713852731,120564,,2064,0
1620713852731,120584,,1969,0
1620713852731,120604,,1902,0
1620713852731,120624,,1819,0
1620713852731,120645,,1757,0
1620713852731,120665,,1734,0
1620713852731,120685,,1742,0
1620713852731,120705,,1805,0
1620713852731,120725,,1821,0
1620713852731,120745,,1831,0
1620713853232,120765,,1845,0
1620713853232,120785,,1936,0
1620713853232,120805,,2003,0
1620713853232,120825,,1925,0
1620713853232,120845,,1782,0
1620713853232,120866,,1680,0
1620713853232,120886,,1590,0
1620713853232,120906,,1623,0
1620713853232,120926,,1623,0
1620713853232,120946,,1646,0
1620713853232,120966,,1701,0
1620713853232,120986,,1783,0
1620713853232,121006,,1997,0
1620713853232,121026,,2149,0
1620713853232,121046,,2256,0
1620713853232,121066,,2287,0
1620713853232,121087,,2225,0
1620713853232,121107,,2203,0
1620713853232,121127,,2096,0
1620713853232,121147,,1985,0
1620713853232,121167,,1897,0
1620713853232,121187,,1813,0
1620713853232,121207,,1803,0
1620713853232,121227,,1773,0
1620713853232,121247,,1755,0
1620713853739,121268,,1765,0
1620713853739,121288,,1889,0
1620713853739,121309,,1996,0
1620713853739,121329,,1947,0
1620713853739,121349,,1827,0
1620713853739,121369,,1735,0
1620713853739,121389,,1680,0
1620713853739,121409,,1683,0
1620713853739,121429,,1694,0
1620713853739,121449,,1680,0
1620713853739,121469,,1666,0
1620713853739,121489,,1674,1
1620713853739,121509,,1709,1
1620713853739,121530,,1755,1
1620713853739,121550,,1827,1
1620713853739,121570,,1936,1
1620713853739,121590,,2075,1
1620713853739,121610,,2190,0
1620713853739,121630,,2265,0
1620713853739,121650,,2244,0
1620713853739,121670,,2177,0
1620713853739,121690,,2096,0
1620713853739,121710,,2005,0
1620713853739,121730,,1947,0
1620713853739,121751,,1859,0
1620713854241,121772,,1787,0
1620713854241,121792,,1840,0
1620713854241,121812,,1915,0
1620713854241,121832,,1856,0
1620713854241,121852,,1748,0
1620713854241,121872,,1687,0
1620713854241,121892,,1676,0
1620713854241,121912,,1680,0
1620713854241,121932,,1742,0
1620713854241,121952,,1755,0
1620713854241,121973,,1759,0
1620713854241,121993,,1759,0
1620713854241,122013,,1731,0
1620713854241,122033,,1776,0
1620713854241,122053,,1748,0
1620713854241,122073,,1712,0
1620713854241,122093,,1693,0
1620713854241,122113,,1668,0
1620713854241,122133,,1809,0
1620713854241,122153,,1934,0
1620713854241,122173,,2047,0
1620713854241,122194,,2154,0
1620713854241,122214,,2192,0
1620713854241,122234,,2256,0
1620713854241,122254,,2173,0
1620713854740,122274,,2190,0
1620713854740,122294,,2153,0
1620713854740,122314,,2090,0
1620713854740,122334,,1927,0
1620713854740,122354,,1840,0
1620713854740,122374,,1787,0
1620713854740,122394,,1761,0
1620713854740,122415,,1762,0
1620713854740,122435,,1810,0
1620713854740,122455,,1740,0
1620713854740,122475,,1692,0
1620713854740,122495,,1685,0
1620713854740,122515,,1697,0
1620713854740,122535,,1731,0
1620713854740,122555,,1763,0
1620713854740,122575,,1767,0
1620713854740,122595,,1754,0
1620713854740,122615,,1750,0
1620713854740,122636,,1762,0
1620713854740,122656,,1770,0
1620713854740,122676,,1767,0
1620713854740,122696,,1793,0
1620713854740,122716,,1869,0
1620713854740,122736,,2000,0
1620713854740,122756,,2145,0
1620713855242,122776,,2221,0
1620713855242,122796,,2348,0
1620713855242,122816,,2368,0
1620713855242,122836,,2288,0
1620713855242,122857,,2103,0
1620713855242,122877,,1907,0
1620713855242,122897,,1771,0
1620713855242,122917,,1693,0
1620713855242,122937,,1657,0
1620713855242,122957,,1712,0
1620713855242,122977,,1743,0
1620713855242,122997,,1785,0
1620713855242,123017,,1829,0
1620713855242,123037,,1833,0
1620713855242,123057,,1895,0
1620713855242,123078,,1885,0
1620713855242,123098,,1859,0
1620713855242,123118,,1834,0
1620713855242,123138,,1772,0
1620713855242,123158,,1799,0
1620713855242,123178,,1776,0
1620713855242,123198,,1750,0
1620713855242,123218,,1733,0
1620713855242,123238,,1710,0
1620713855242,123258,,1804,0
1620713855797,123279,,1929,0
1620713855797,123300,,2149,0
1620713855797,123320,,2351,0
1620713855797,123340,,2312,0
1620713855797,123360,,2268,0
1620713855797,123380,,2141,0
1620713855797,123400,,2015,0
1620713855797,123420,,1917,0
1620713855797,123440,,1830,0
1620713855797,123460,,1822,0
1620713855797,123480,,1799,0
1620713855797,123500,,1778,0
1620713855797,123521,,1775,0
1620713855797,123541,,1781,0
1620713855797,123561,,1828,0
1620713855797,123581,,1856,0
1620713855797,123601,,1861,0
1620713855797,123621,,1856,0
1620713855797,123641,,1842,0
1620713855797,123661,,1855,0
1620713855797,123681,,1837,0
1620713855797,123701,,1808,0
1620713855797,123721,,1781,0
1620713855797,123742,,1753,0
1620713855797,123762,,1747,0
1620713856244,123782,,1759,0
1620713856244,123802,,1860,0
1620713856244,123822,,1975,0
1620713856244,123842,,2034,0
1620713856244,123862,,2061,0
1620713856244,123882,,2112,0
1620713856244,123902,,2134,0
1620713856244,123922,,2128,0
1620713856244,123942,,2095,0
1620713856244,123963,,2031,0
1620713856244,123983,,2019,0
1620713856244,124003,,1947,0
1620713856244,124023,,1871,0
1620713856244,124043,,1814,0
1620713856244,124063,,1771,0
1620713856244,124083,,1793,0
1620713856244,124103,,1789,0
1620713856244,124123,,1789,0
1620713856244,124143,,1802,0
1620713856244,124163,,1794,0
1620713856244,124184,,1856,0
1620713856244,124204,,1843,0
1620713856244,124224,,1826,0
1620713856244,124244,,1801,0
1620713856244,124264,,1749,0
1620713856754,124284,,1801,0
1620713856754,124304,,1883,0
1620713856754,124324,,1936,1
1620713856754,124344,,1853,1
1620713856754,124364,,1702,1
1620713856754,124384,,1699,1
1620713856754,124405,,1729,1
1620713856754,124425,,1839,1
1620713856754,124445,,1983,1
1620713856754,124465,,2114,1
1620713856754,124485,,2244,0
1620713856754,124505,,2253,0
1620713856754,124525,,2182,0
1620713856754,124545,,2096,0
1620713856754,124565,,2002,0
1620713856754,124586,,1932,0
1620713856754,124606,,1850,0
1620713856754,124627,,1776,0
1620713856754,124647,,1744,0
1620713856754,124667,,1744,0
1620713856754,124687,,1802,0
1620713856754,124707,,1830,0
1620713856754,124727,,1841,0
1620713856754,124747,,1842,0
1620713856754,124767,,1833,0
1620713857255,124787,,1827,0
1620713857255,124807,,1910,0
1620713857255,124827,,1971,0
1620713857255,124848,,1918,0
1620713857255,124868,,1786,0
1620713857255,124888,,1710,0
1620713857255,124908,,1665,0
1620713857255,124928,,1642,0
1620713857255,124948,,1654,0
1620713857255,124968,,1722,0
1620713857255,124988,,1856,0
1620713857255,125008,,2025,0
1620713857255,125028,,2156,0
1620713857255,125048,,2231,0
1620713857255,125069,,2254,0
1620713857255,125089,,2203,0
1620713857255,125109,,2151,0
1620713857255,125129,,2034,0
1620713857255,125149,,1923,0
1620713857255,125169,,1835,0
1620713857255,125189,,1766,0
1620713857255,125209,,1771,0
1620713857255,125229,,1745,0
1620713857255,125249,,1749,0
1620713857255,125269,,1775,0
1620713857758,125289,,1809,0
1620713857758,125309,,1937,0
1620713857758,125329,,1987,0
1620713857758,125349,,1998,0
1620713857758,125369,,1867,0
1620713857758,125389,,1727,0
1620713857758,125409,,1708,0
1620713857758,125429,,1669,0
1620713857758,125449,,1649,0
1620713857758,125469,,1656,0
1620713857758,125489,,1666,1
1620713857758,125510,,1735,1
1620713857758,125530,,1794,1
1620713857758,125550,,1898,1
1620713857758,125570,,2032,1
1620713857758,125590,,2151,0
1620713857758,125610,,2271,0
1620713857758,125630,,2275,0
1620713857758,125650,,2207,0
1620713857758,125670,,2101,0
1620713857758,125690,,1994,0
1620713857758,125710,,1915,0
1620713857758,125731,,1829,0
1620713857758,125751,,1760,0
1620713857758,125771,,1726,0
1620713858255,125792,,1731,0
1620713858255,125812,,1859,0
1620713858255,125832,,1983,0
1620713858255,125852,,1961,0
1620713858255,125872,,1865,0
1620713858255,125892,,1790,0
1620713858255,125912,,1758,0
1620713858255,125932,,1744,0
1620713858255,125953,,1724,0
1620713858255,125973,,1716,0
1620713858255,125993,,1714,0
1620713858255,126013,,1730,0
1620713858255,126033,,1753,0
1620713858255,126053,,1758,0
1620713858255,126073,,1797,0
1620713858255,126093,,1891,0
1620713858255,126113,,2032,0
1620713858255,126133,,2198,0
1620713858255,126153,,2275,0
1620713858255,126174,,2270,0
1620713858255,126194,,2212,0
1620713858255,126214,,2110,0
1620713858255,126234,,2038,0
1620713858255,126254,,1921,0
1620713858255,126274,,1824,0
1620713858763,126294,,1775,0
1620713858763,126314,,1840,0
1620713858763,126334,,1930,0
1620713858763,126354,,1899,0
1620713858763,126374,,1811,0
1620713858763,126395,,1763,0
1620713858763,126415,,1717,0
1620713858763,126435,,1783,0
1620713858763,126455,,1782,0
1620713858763,126475,,1779,0
1620713858763,126495,,1776,0
1620713858763,126515,,1745,0
1620713858763,126535,,1797,0
1620713858763,126555,,1785,0
1620713858763,126575,,1764,0
1620713858763,126595,,1763,1
1620713858763,126616,,1802,1
1620713858763,126636,,1965,1
1620713858763,126656,,2102,1
1620713858763,126676,,2222,0
1620713858763,126696,,2295,0
1620713858763,126716,,2303,0
1620713858763,126736,,2277,0
1620713858763,126756,,2190,0
1620713858763,126776,,2071,0
1620713859264,126797,,1958,0
1620713859264,126817,,1975,0
1620713859264,126838,,1983,0
1620713859264,126858,,1919,0
1620713859264,126878,,1790,0
1620713859264,126898,,1717,0
1620713859264,126918,,1694,0
1620713859264,126938,,1744,0
1620713859264,126958,,1780,0
1620713859264,126978,,1801,0
1620713859264,126998,,1812,0
1620713859264,127018,,1821,0
1620713859264,127038,,1837,0
1620713859264,127059,,1834,0
1620713859264,127079,,1798,0
1620713859264,127099,,1765,0
1620713859264,127119,,1741,0
1620713859264,127139,,1735,0
1620713859264,127159,,1856,0
1620713859264,127179,,1941,0
1620713859264,127199,,2080,0
1620713859264,127219,,2217,0
1620713859264,127239,,2317,0
1620713859264,127259,,2354,0
1620713859264,127280,,2294,0
1620713859763,127300,,2211,0
1620713859763,127320,,2202,0
1620713859763,127340,,2175,0
1620713859763,127360,,2032,0
1620713859763,127380,,1843,0
1620713859763,127400,,1712,0
1620713859763,127420,,1650,0
1620713859763,127440,,1638,0
1620713859763,127460,,1733,0
1620713859763,127480,,1783,0
1620713859763,127501,,1831,0
1620713859763,127521,,1857,0
1620713859763,127541,,1830,0
1620713859763,127561,,1872,0
1620713859763,127581,,1854,0
1620713859763,127601,,1814,0
1620713859763,127621,,1779,0
1620713859763,127641,,1731,0
1620713859763,127661,,1777,0
1620713859763,127681,,1765,0
1620713859763,127701,,1771,0
1620713859763,127722,,1849,0
1620713859763,127742,,1975,0
1620713859763,127762,,2189,0
1620713859763,127782,,2319,0
1620713860306,127803,,2389,0
1620713860306,127823,,2467,0
1620713860306,127843,,2459,0
1620713860306,127863,,2311,0
1620713860306,127883,,2079,0
1620713860306,127903,,1888,0
1620713860306,127923,,1751,0
1620713860306,127944,,1680,0
1620713860306,127964,,1692,0
1620713860306,127984,,1714,0
1620713860306,128004,,1747,0
1620713860306,128024,,1790,0
1620713860306,128044,,1837,0
1620713860306,128064,,1888,0
1620713860306,128084,,1909,0
1620713860306,128104,,1894,0
1620713860306,128124,,1871,0
1620713860306,128144,,1827,0
1620713860306,128165,,1808,0
1620713860306,128185,,1799,0
1620713860306,128205,,1762,0
1620713860306,128225,,1735,0
1620713860306,128245,,1727,0
1620713860306,128265,,1747,0
1620713860306,128285,,1971,0
1620713860785,128306,,2241,0
1620713860785,128326,,2419,0
1620713860785,128346,,2512,0
1620713860785,128366,,2539,0
1620713860785,128387,,2359,0
1620713860785,128407,,2128,0
1620713860785,128427,,1935,0
1620713860785,128447,,1808,0
1620713860785,128467,,1713,0
1620713860785,128487,,1723,0
1620713860785,128507,,1712,0
1620713860785,128527,,1717,0
1620713860785,128547,,1747,0
1620713860785,128567,,1767,0
1620713860785,128587,,1875,0
1620713860785,128608,,1910,0
1620713860785,128628,,1905,0
1620713860785,128648,,1897,0
1620713860785,128668,,1843,0
1620713860785,128688,,1861,0
1620713860785,128708,,1817,0
1620713860785,128728,,1776,0
1620713860785,128748,,1745,0
1620713860785,128768,,1698,0
1620713860785,128788,,1747,0
1620713861286,128809,,1802,0
1620713861286,128830,,2005,0
1620713861286,128850,,2258,0
1620713861286,128870,,2331,0
1620713861286,128890,,2390,0
1620713861286,128910,,2362,0
1620713861286,128930,,2288,0
1620713861286,128950,,2193,0
1620713861286,128970,,2083,0
1620713861286,128990,,2027,0
1620713861286,129010,,1950,0
1620713861286,129030,,1863,0
1620713861286,129051,,1799,0
1620713861286,129071,,1758,0
1620713861286,129091,,1782,0
1620713861286,129111,,1799,0
1620713861286,129131,,1818,0
1620713861286,129151,,1840,0
1620713861286,129171,,1842,0
1620713861286,129191,,1824,0
1620713861286,129211,,1909,0
1620713861286,129231,,1983,0
1620713861286,129251,,1969,0
1620713861286,129272,,1957,0
1620713861286,129292,,1819,0
1620713852225,120061,,1791,1
1620713852225,120081,,1777,1
1620713852225,120101,,1760,1
1620713852225,120121,,1756,1
1620713852225,120141,,1765,1
1620713852225,120161,,1782,1
1620713852225,120181,,1835,1
1620713852225,120202,,1851,1
1620713852225,120222,,1835,1
1620713852225,120242,,1812,1
1620713852731,120263,,1791,1
1620713852731,120283,,1870,1
1620713852731,120303,,1937,1
1620713852731,120323,,1851,1
1620713852731,120343,,1728,1
1620713852731,120363,,1646,1
1620713852731,120383,,1632,1
1620713852731,120403,,1680,1
1620713852731,120424,,1781,1
1620713852731,120444,,1935,1
1620713852731,120464,,2097,1
1620713852731,120484,,2241,0
1620713852731,120504,,2304,0
1620713852731,120524,,2269,0
1620713852731,120544,,2174,0
1620713852731,120564,,2064,0
1620713852731,120584,,1969,0
1620713852731,120604,,1902,0
1620713852731,120624,,1819,0
1620713852731,120645,,1757,0
1620713852731,120665,,1734,0
1620713852731,120685,,1742,0
1620713852731,120705,,1805,0
1620713852731,120725,,1821,0
1620713852731,120745,,1831,0
1620713853232,120765,,1845,0
1620713853232,120785,,1936,0
1620713853232,120805,,2003,0
1620713853232,120825,,1925,0
1620713853232,120845,,1782,0
1620713853232,120866,,1680,0
1620713853232,120886,,1590,0
1620713853232,120906,,1623,0
1620713853232,120926,,1623,0
1620713853232,120946,,1646,0
1620713853232,120966,,1701,0
1620713853232,120986,,1783,0
1620713853232,121006,,1997,0
1620713853232,121026,,2149,0
1620713853232,121046,,2256,0
1620713853232,121066,,2287,0
1620713853232,121087,,2225,0
1620713853232,121107,,2203,0
1620713853232,121127,,2096,0
1620713853232,121147,,1985,0
1620713853232,121167,,1897,0
1620713853232,121187,,1813,0
1620713853232,121207,,1803,0
1620713853232,121227,,1773,0
1620713853232,121247,,1755,0
1620713853739,121268,,1765,0
1620713853739,121288,,1889,0
1620713853739,121309,,1996,0
1620713853739,121329,,1947,0
1620713853739,121349,,1827,0
1620713853739,121369,,1735,0
1620713853739,121389,,1680,0
1620713853739,121409,,1683,0
1620713853739,121429,,1694,0
1620713853739,121449,,1680,0
1620713853739,121469,,1666,0
1620713853739,121489,,1674,1
1620713853739,121509,,1709,1
1620713853739,121530,,1755,1
1620713853739,121550,,1827,1
1620713853739,121570,,1936,1
1620713853739,121590,,2075,1
1620713853739,121610,,2190,0
1620713853739,121630,,2265,0
1620713853739,121650,,2244,0
1620713853739,121670,,2177,0
1620713853739,121690,,2096,0
1620713853739,121710,,2005,0
1620713853739,121730,,1947,0
1620713853739,121751,,1859,0
1620713854241,121772,,1787,0
1620713854241,121792,,1840,0
1620713854241,121812,,1915,0
1620713854241,121832,,1856,0
1620713854241,121852,,1748,0
1620713854241,121872,,1687,0
1620713854241,121892,,1676,0
1620713854241,121912,,1680,0
1620713854241,121932,,1742,0
1620713854241,121952,,1755,0
1620713854241,121973,,1759,0
1620713854241,121993,,1759,0
1620713854241,122013,,1731,0
1620713854241,122033,,1776,0
1620713854241,122053,,1748,0
1620713854241,122073,,1712,0
1620713854241,122093,,1693,0
1620713854241,122113,,1668,0
1620713854241,122133,,1809,0
1620713854241,122153,,1934,0
1620713854241,122173,,2047,0
1620713854241,122194,,2154,0
1620713854241,122214,,2192,0
1620713854241,122234,,2256,0
1620713854241,122254,,2173,0
1620713854740,122274,,2190,0
1620713854740,122294,,2153,0
1620713854740,122314,,2090,0
1620713854740,122334,,1927,0
1620713854740,122354,,1840,0
1620713854740,122374,,1787,0
1620713854740,122394,,1761,0
1620713854740,122415,,1762,0
1620713854740,122435,,1810,0
1620713854740,122455,,1740,0
1620713854740,122475,,1692,0
1620713854740,122495,,1685,0
1620713854740,122515,,1697,0
1620713854740,122535,,1731,0
1620713854740,122555,,1763,0
1620713854740,122575,,1767,0
1620713854740,122595,,1754,0
1620713854740,122615,,1750,0
1620713854740,122636,,1762,0
1620713854740,122656,,1770,0
1620713854740,122676,,1767,0
1620713854740,122696,,1793,0
1620713854740,122716,,1869,0
1620713854740,122736,,2000,0
1620713854740,122756,,2145,0
1620713855242,122776,,2221,0
1620713855242,122796,,2348,0
1620713855242,122816,,2368,0
1620713855242,122836,,2288,0
1620713855242,122857,,2103,0
1620713855242,122877,,1907,0
1620713855242,122897,,1771,0
1620713855242,122917,,1693,0
1620713855242,122937,,1657,0
1620713855242,122957,,1712,0
1620713855242,122977,,1743,0
1620713855242,122997,,1785,0
1620713855242,123017,,1829,0
1620713855242,123037,,1833,0
1620713855242,123057,,1895,0
1620713855242,123078,,1885,0
1620713855242,123098,,1859,0
1620713855242,123118,,1834,0
1620713855242,123138,,1772,0
1620713855242,123158,,1799,0
1620713855242,123178,,1776,0
1620713855242,123198,,1750,0
1620713855242,123218,,1733,0
1620713855242,123238,,1710,0
1620713855242,123258,,1804,0
1620713855797,123279,,1929,0
1620713855797,123300,,2149,0
1620713855797,123320,,2351,0
1620713855797,123340,,2312,0
1620713855797,123360,,2268,0
1620713855797,123380,,2141,0
1620713855797,123400,,2015,0
1620713855797,123420,,1917,0
1620713855797,123440,,1830,0
1620713855797,123460,,1822,0
1620713855797,123480,,1799,0
1620713855797,123500,,1778,0
1620713855797,123521,,1775,0
1620713855797,123541,,1781,0
1620713855797,123561,,1828,0
1620713855797,123581,,1856,0
1620713855797,123601,,1861,0
1620713855797,123621,,1856,0
1620713855797,123641,,1842,0
1620713855797,123661,,1855,0
1620713855797,123681,,1837,0
1620713855797,123701,,1808,0
1620713855797,123721,,1781,0
1620713855797,123742,,1753,0
1620713855797,123762,,1747,0
1620713856244,123782,,1759,0
1620713856244,123802,,1860,0
1620713856244,123822,,1975,0
1620713856244,123842,,2034,0
1620713856244,123862,,2061,0
1620713856244,123882,,2112,0
1620713856244,123902,,2134,0
1620713856244,123922,,2128,0
1620713856244,123942,,2095,0
1620713856244,123963,,2031,0
1620713856244,123983,,2019,0
1620713856244,124003,,1947,0
1620713856244,124023,,1871,0
1620713856244,124043,,1814,0
1620713856244,124063,,1771,0
1620713856244,124083,,1793,0
1620713856244,124103,,1789,0
1620713856244,124123,,1789,0
1620713856244,124143,,1802,0
1620713856244,124163,,1794,0
1620713856244,124184,,1856,0
1620713856244,124204,,1843,0
1620713856244,124224,,1826,0
1620713856244,124244,,1801,0
1620713856244,124264,,1749,0
1620713856754,124284,,1801,0
1620713856754,124304,,1883,0
1620713856754,124324,,1936,1
1620713856754,124344,,1853,1
1620713856754,124364,,1702,1
1620713856754,124384,,1699,1
1620713856754,124405,,1729,1
1620713856754,124425,,1839,1
1620713856754,124445,,1983,1
1620713856754,124465,,2114,1
1620713856754,124485,,2244,0
1620713856754,124505,,2253,0
1620713856754,124525,,2182,0
1620713856754,124545,,2096,0
1620713856754,124565,,2002,0
1620713856754,124586,,1932,0
1620713856754,124606,,1850,0
1620713856754,124627,,1776,0
1620713856754,124647,,1744,0
1620713856754,124667,,1744,0
1620713856754,124687,,1802,0
1620713856754,124707,,1830,0
1620713856754,124727,,1841,0
1620713856754,124747,,1842,0
1620713856754,124767,,1833,0
1620713857255,124787,,1827,0
1620713857255,124807,,1910,0
1620713857255,124827,,1971,0
1620713857255,124848,,1918,0
1620713857255,124868,,1786,0
1620713857255,124888,,1710,0
1620713857255,124908,,1665,0
1620713857255,124928,,1642,0
1620713857255,124948,,1654,0
1620713857255,124968,,1722,0
1620713857255,124988,,1856,0
1620713857255,125008,,2025,0
1620713857255,125028,,2156,0
1620713857255,125048,,2231,0
1620713857255,125069,,2254,0
1620713857255,125089,,2203,0
1620713857255,125109,,2151,0
1620713857255,125129,,2034,0
1620713857255,125149,,1923,0
1620713857255,125169,,1835,0
1620713857255,125189,,1766,0
1620713857255,125209,,1771,0
1620713857255,125229,,1745,0
1620713857255,125249,,1749,0
1620713857255,125269,,1775,0
1620713857758,125289,,1809,0
1620713857758,125309,,1937,0
1620713857758,125329,,1987,0
1620713857758,125349,,1998,0
1620713857758,125369,,1867,0
1620713857758,125389,,1727,0
1620713857758,125409,,1708,0
1620713857758,125429,,1669,0
1620713857758,125449,,1649,0
1620713857758,125469,,1656,0
1620713857758,125489,,1666,1
1620713857758,125510,,1735,1
1620713857758,125530,,1794,1
1620713857758,125550,,1898,1
1620713857758,125570,,2032,1
1620713857758,125590,,2151,0
1620713857758,125610,,2271,0
1620713857758,125630,,2275,0
1620713857758,125650,,2207,0
1620713857758,125670,,2101,0
1620713857758,125690,,1994,0
1620713857758,125710,,1915,0
1620713857758,125731,,1829,0
1620713857758,125751,,1760,0
1620713857758,125771,,1726,0
1620713858255,125792,,1731,0
1620713858255,125812,,1859,0
1620713858255,125832,,1983,0
1620713858255,125852,,1961,0
1620713858255,125872,,1865,0
1620713858255,125892,,1790,0
1620713858255,125912,,1758,0
1620713858255,125932,,1744,0
1620713858255,125953,,1724,0
1620713858255,125973,,1716,0
1620713858255,125993,,1714,0
1620713858255,126013,,1730,0
1620713858255,126033,,1753,0
1620713858255,126053,,1758,0
1620713858255,126073,,1797,0
1620713858255,126093,,1891,0
1620713858255,126113,,2032,0
1620713858255,126133,,2198,0
1620713858255,126153,,2275,0
1620713858255,126174,,2270,0
1620713858255,126194,,2212,0
1620713858255,126214,,2110,0
1620713858255,126234,,2038,0
1620713858255,126254,,1921,0
1620713858255,126274,,1824,0
1620713858763,126294,,1775,0
1620713858763,126314,,1840,0
1620713858763,126334,,1930,0
1620713858763,126354,,1899,0
1620713858763,126374,,1811,0
1620713858763,126395,,1763,0
1620713858763,126415,,1717,0
1620713858763,126435,,1783,0
1620713858763,126455,,1782,0
1620713858763,126475,,1779,0
1620713858763,126495,,1776,0
1620713858763,126515,,1745,0
1620713858763,126535,,1797,0
1620713858763,126555,,1785,0
1620713858763,126575,,1764,0
1620713858763,126595,,1763,1
1620713858763,126616,,1802,1
1620713858763,126636,,1965,1
1620713858763,126656,,2102,1
1620713858763,126676,,2222,0
1620713858763,126696,,2295,0
1620713858763,126716,,2303,0
1620713858763,126736,,2277,0
1620713858763,126756,,2190,0
1620713858763,126776,,2071,0
1620713859264,126797,,1958,0
1620713859264,126817,,1975,0
1620713859264,126838,,1983,0
1620713859264,126858,,1919,0
1620713859264,126878,,1790,0
1620713859264,126898,,1717,0
1620713859264,126918,,1694,0
1620713859264,126938,,1744,0
1620713859264,126958,,1780,0
1620713859264,126978,,1801,0
1620713859264,126998,,1812,0
1620713859264,127018,,1821,0
1620713859264,127038,,1837,0
1620713859264,127059,,1834,0
1620713859264,127079,,1798,0
1620713859264,127099,,1765,0
1620713859264,127119,,1741,0
1620713859264,127139,,1735,0
1620713859264,127159,,1856,0
1620713859264,127179,,1941,0
1620713859264,127199,,2080,0
1620713859264,127219,,2217,0
1620713859264,127239,,2317,0
1620713859264,127259,,2354,0
1620713859264,127280,,2294,0
1620713859763,127300,,2211,0
1620713859763,127320,,2202,0
1620713859763,127340,,2175,0
1620713859763,127360,,2032,0
1620713859763,127380,,1843,0
1620713859763,127400,,1712,0
1620713859763,127420,,1650,0
1620713859763,127440,,1638,0
1620713859763,127460,,1733,0
1620713859763,127480,,1783,0
1620713859763,127501,,1831,0
1620713859763,127521,,1857,0
1620713859763,127541,,1830,0
1620713859763,127561,,1872,0
1620713859763,127581,,1854,0
1620713859763,127601,,1814,0
1620713859763,127621,,1779,0
1620713859763,127641,,1731,0
1620713859763,127661,,1777,0
1620713859763,127681,,1765,0
1620713859763,127701,,1771,0
1620713859763,127722,,1849,0
1620713859763,127742,,1975,0
1620713859763,127762,,2189,0
1620713859763,127782,,2319,0
1620713860306,127803,,2389,0
1620713860306,127823,,2467,0
1620713860306,127843,,2459,0
1620713860306,127863,,2311,0
1620713860306,127883,,2079,0
1620713860306,127903,,1888,0
1620713860306,127923,,1751,0
1620713860306,127944,,1680,0
1620713860306,127964,,1692,0
1620713860306,127984,,1714,0
1620713860306,128004,,1747,0
1620713860306,128024,,1790,0
1620713860306,128044,,1837,0
1620713860306,128064,,1888,0
1620713860306,128084,,1909,0
1620713860306,128104,,1894,0
1620713860306,128124,,1871,0
1620713860306,128144,,1827,0
1620713860306,128165,,1808,0
1620713860306,128185,,1799,0
1620713860306,128205,,1762,0
1620713860306,128225,,1735,0
1620713860306,128245,,1727,0
1620713860306,128265,,1747,0
1620713860306,128285,,1971,0
1620713860785,128306,,2241,0
1620713860785,128326,,2419,0
1620713860785,128346,,2512,0
1620713860785,128366,,2539,0
1620713860785,128387,,2359,0
1620713860785,128407,,2128,0
1620713860785,128427,,1935,0
1620713860785,128447,,1808,0
1620713860785,128467,,1713,0
1620713860785,128487,,1723,0
1620713860785,128507,,1712,0
1620713860785,128527,,1717,0
1620713860785,128547,,1747,0
1620713860785,128567,,1767,0
1620713860785,128587,,1875,0
1620713860785,128608,,1910,0
1620713860785,128628,,1905,0
1620713860785,128648,,1897,0
1620713860785,128668,,1843,0
1620713860785,128688,,1861,0
1620713860785,128708,,1817,0
1620713860785,128728,,1776,0
1620713860785,128748,,1745,0
1620713860785,128768,,1698,0
1620713860785,128788,,1747,0
1620713861286,128809,,1802,0
1620713861286,128830,,2005,0
1620713861286,128850,,2258,0
1620713861286,128870,,2331,0
1620713861286,128890,,2390,0
1620713861286,128910,,2362,0
1620713861286,128930,,2288,0
1620713861286,128950,,2193,0
1620713861286,128970,,2083,0
1620713861286,128990,,2027,0
1620713861286,129010,,1950,0
1620713861286,129030,,1863,0
1620713861286,129051,,1799,0
1620713861286,129071,,1758,0
1620713861286,129091,,1782,0
1620713861286,129111,,1799,0
1620713861286,129131,,1818,0
1620713861286,129151,,1840,0
1620713861286,129171,,1842,0
1620713861286,129191,,1824,0
1620713861286,129211,,1909,0
1620713861286,129231,,1983,0
1620713861286,129251,,1969,0
1620713861286,129272,,1957,0
1620713861286,129292,,1819,0
1620713861775,129312,,1698,0
1620713861775,129332,,1695,0
1620713861775,129352,,1739,0
1620713861775,129372,,1754,0
1620713861775,129392,,1803,0
1620713861775,129412,,1966,0
1620713861775,129432,,2130,0
1620713861775,129452,,2273,0
1620713861775,129472,,2343,0
1620713861775,129493,,2337,0
1620713861775,129513,,2299,0
1620713861775,129533,,2190,0
1620713861775,129553,,2064,0
1620713861775,129573,,1937,0
1620713861775,129593,,1761,0
1620713861775,129613,,1856,0
1620713861775,129633,,1911,0
1620713861775,129653,,1969,0
1620713861775,129673,,1899,0
1620713861775,129693,,1777,0
1620713861775,129714,,1774,0
1620713861775,129734,,1732,0
1620713861775,129754,,1712,0
1620713861775,129774,,1705,0
1620713861775,129794,,1678,0
1620713862278,129815,,1758,0
1620713862278,129835,,1857,0
1620713862278,129855,,1943,0
1620713862278,129875,,1872,1
1620713862278,129895,,1711,1
1620713862278,129915,,1671,1
1620713862278,129936,,1634,1
1620713862278,129956,,1676,1
1620713862278,129976,,1822,1
1620713862278,129996,,2022,1
1620713862278,130016,,2288,1
1620713862278,130036,,2411,1
1620713862278,130056,,2438,1
1620713862278,130076,,2384,1
1620713862278,130096,,2292,1
1620713862278,130116,,2193,1
1620713862278,130136,,2062,1
1620713862278,130157,,1910,1
1620713862278,130177,,1802,1
1620713862278,130197,,1740,1
1620713862278,130217,,1734,1
1620713862278,130237,,1744,1
1620713862278,130257,,1753,1
1620713862278,130277,,1784,1
1620713862278,130297,,1815,1
1620713862780,130317,,1845,1
1620713862780,130337,,1957,1
1620713862780,130357,,2022,1
1620713862780,130378,,1941,1
1620713862780,130398,,1792,1
1620713862780,130418,,1683,1
1620713862780,130438,,1628,1
1620713862780,130458,,1584,1
1620713862780,130478,,1581,1
1620713862780,130498,,1598,1
1620713862780,130518,,1641,1
1620713862780,130538,,1714,1
1620713862780,130558,,1815,1
1620713862780,130578,,1979,1
1620713862780,130599,,2174,1
1620713862780,130619,,2327,1
1620713862780,130639,,2438,1
1620713862780,130659,,2416,1
1620713862780,130679,,2321,1
1620713862780,130699,,2192,1
1620713862780,130719,,2035,1
1620713862780,130739,,1953,1
1620713862780,130759,,1839,1
1620713862780,130779,,1744,1
1620713862780,130799,,1690,1
1620713863281,130819,,1694,1
1620713863281,130839,,1836,1
1620713863281,130859,,1945,1
1620713863281,130879,,1957,1
1620713863281,130899,,1854,1
1620713863281,130919,,1745,1
1620713863281,130939,,1746,1
1620713863281,130959,,1713,1
1620713863281,130979,,1687,1
1620713863281,130999,,1671,1
1620713863281,131019,,1655,1
1620713863281,131040,,1706,1
1620713863281,131060,,1706,1
1620713863281,131080,,1692,1
1620713863281,131100,,1689,1
1620713863281,131120,,1685,1
1620713863281,131140,,1776,1
1620713863281,131160,,1890,1
1620713863281,131180,,2043,1
1620713863281,131200,,2209,1
1620713863281,131220,,2320,1
1620713863281,131240,,2384,1
1620713863281,131261,,2343,1
1620713863281,131281,,2225,1
1620713863281,131301,,2085,1
1620713863786,131321,,1959,1
1620713863786,131341,,1947,1
1620713863786,131361,,1947,1
1620713863786,131381,,1849,1
1620713863786,131401,,1714,1
1620713863786,131421,,1652,1
1620713863786,131441,,1670,1
1620713863786,131461,,1724,1
1620713863786,131482,,1760,1
1620713863786,131502,,1785,1
1620713863786,131522,,1801,1
1620713863786,131542,,1822,1
1620713863786,131562,,1823,1
1620713863786,131582,,1795,1
1620713863786,131602,,1757,1
1620713863786,131622,,1728,1
1620713863786,131642,,1700,1
1620713863786,131662,,1712,1
1620713863786,131682,,1693,1
1620713863786,131703,,1712,1
1620713863786,131723,,1778,1
1620713863786,131743,,1902,1
1620713863786,131763,,2111,1
1620713863786,131783,,2245,1
1620713863786,131803,,2320,1
1620713864319,131824,,2333,1
1620713864319,131844,,2362,1
1620713864319,131864,,2290,1
1620713864319,131884,,2190,1
1620713864319,131904,,2077,1
1620713864319,131925,,1865,1
1620713864319,131945,,1627,1
1620713864319,131965,,1583,1
1620713864319,131985,,1561,1
1620713864319,132005,,1584,1
1620713864319,132025,,1647,1
1620713864319,132045,,1690,1
1620713864319,132065,,1798,1
1620713864319,132085,,1826,1
1620713864319,132105,,1824,1
1620713864319,132125,,1808,1
1620713864319,132146,,1755,1
1620713864319,132166,,1776,1
1620713864319,132186,,1739,1
1620713864319,132206,,1703,1
1620713864319,132226,,1680,1
1620713864319,132246,,1665,1
1620713864319,132266,,1702,1
1620713864319,132286,,1745,1
1620713864319,132306,,1843,1
1620713859763,127300,,2211,0
1620713859763,127320,,2202,0
1620713859763,127340,,2175,0
1620713859763,127360,,2032,0
1620713859763,127380,,1843,0
1620713859763,127400,,1712,0
1620713859763,127420,,1650,0
1620713859763,127440,,1638,0
1620713859763,127460,,1733,0
1620713859763,127480,,1783,0
1620713859763,127501,,1831,0
1620713859763,127521,,1857,0
1620713859763,127541,,1830,0
1620713859763,127561,,1872,0
1620713859763,127581,,1854,0
1620713859763,127601,,1814,0
1620713859763,127621,,1779,0
1620713859763,127641,,1731,0
1620713859763,127661,,1777,0
1620713859763,127681,,1765,0
1620713859763,127701,,1771,0
1620713859763,127722,,1849,0
1620713859763,127742,,1975,0
1620713859763,127762,,2189,0
1620713859763,127782,,2319,0
1620713860306,127803,,2389,0
1620713860306,127823,,2467,0
1620713860306,127843,,2459,0
1620713860306,127863,,2311,0
1620713860306,127883,,2079,0
1620713860306,127903,,1888,0
1620713860306,127923,,1751,0
1620713860306,127944,,1680,0
1620713860306,127964,,1692,0
1620713860306,127984,,1714,0
1620713860306,128004,,1747,0
1620713860306,128024,,1790,0
1620713860306,128044,,1837,0
1620713860306,128064,,1888,0
1620713860306,128084,,1909,0
1620713860306,128104,,1894,0
1620713860306,128124,,1871,0
1620713860306,128144,,1827,0
1620713860306,128165,,1808,0
1620713860306,128185,,1799,0
1620713860306,128205,,1762,0
1620713860306,128225,,1735,0
1620713860306,128245,,1727,0
1620713860306,128265,,1747,0
1620713860306,128285,,1971,0
1620713860785,128306,,2241,0
1620713860785,128326,,2419,0
1620713860785,128346,,2512,0
1620713860785,128366,,2539,0
1620713860785,128387,,2359,0
1620713860785,128407,,2128,0
1620713860785,128427,,1935,0
1620713860785,128447,,1808,0
1620713860785,128467,,1713,0
1620713860785,128487,,1723,0
1620713860785,128507,,1712,0
1620713860785,128527,,1717,0
1620713860785,128547,,1747,0
1620713860785,128567,,1767,0
1620713860785,128587,,1875,0
1620713860785,128608,,1910,0
1620713860785,128628,,1905,0
1620713860785,128648,,1897,0
1620713860785,128668,,1843,0
1620713860785,128688,,1861,0
1620713860785,128708,,1817,0
1620713860785,128728,,1776,0
1620713860785,128748,,1745,0
1620713860785,128768,,1698,0
1620713860785,128788,,1747,0
1620713861286,128809,,1802,0
1620713861286,128830,,2005,0
1620713861286,128850,,2258,0
1620713861286,128870,,2331,0
1620713861286,128890,,2390,0
1620713861286,128910,,2362,0
1620713861286,128930,,2288,0
1620713861286,128950,,2193,0
1620713861286,128970,,2083,0
1620713861286,128990,,2027,0
1620713861286,129010,,1950,0
1620713861286,129030,,1863,0
1620713861286,129051,,1799,0
1620713861286,129071,,1758,0
1620713861286,129091,,1782,0
1620713861286,129111,,1799,0
1620713861286,129131,,1818,0
1620713861286,129151,,1840,0
1620713861286,129171,,1842,0
1620713861286,129191,,1824,0
1620713861286,129211,,1909,0
1620713861286,129231,,1983,0
1620713861286,129251,,1969,0
1620713861286,129272,,1957,0
1620713861286,129292,,1819,0
1620713861775,129312,,1698,0
1620713861775,129332,,1695,0
1620713861775,129352,,1739,0
1620713861775,129372,,1754,0
1620713861775,129392,,1803,0
1620713861775,129412,,1966,0
1620713861775,129432,,2130,0
1620713861775,129452,,2273,0
1620713861775,129472,,2343,0
1620713861775,129493,,2337,0
1620713861775,129513,,2299,0
1620713861775,129533,,2190,0
1620713861775,129553,,2064,0
1620713861775,129573,,1937,0
1620713861775,129593,,1761,0
1620713861775,129613,,1856,0
1620713861775,129633,,1911,0
1620713861775,129653,,1969,0
1620713861775,129673,,1899,0
1620713861775,129693,,1777,0
1620713861775,129714,,1774,0
1620713861775,129734,,1732,0
1620713861775,129754,,1712,0
1620713861775,129774,,1705,0
1620713861775,129794,,1678,0
1620713862278,129815,,1758,0
1620713862278,129835,,1857,0
1620713862278,129855,,1943,0
1620713862278,129875,,1872,1
1620713862278,129895,,1711,1
1620713862278,129915,,1671,1
1620713862278,129936,,1634,1
1620713862278,129956,,1676,1
1620713862278,129976,,1822,1
1620713862278,129996,,2022,1
1620713862278,130016,,2288,1
1620713862278,130036,,2411,1
1620713862278,130056,,2438,1
1620713862278,130076,,2384,1
1620713862278,130096,,2292,1
1620713862278,130116,,2193,1
1620713862278,130136,,2062,1
1620713862278,130157,,1910,1
1620713862278,130177,,1802,1
1620713862278,130197,,1740,1
1620713862278,130217,,1734,1
1620713862278,130237,,1744,1
1620713862278,130257,,1753,1
1620713862278,130277,,1784,1
1620713862278,130297,,1815,1
1620713862780,130317,,1845,1
1620713862780,130337,,1957,1
1620713862780,130357,,2022,1
1620713862780,130378,,1941,1
1620713862780,130398,,1792,1
1620713862780,130418,,1683,1
1620713862780,130438,,1628,1
1620713862780,130458,,1584,1
1620713862780,130478,,1581,1
1620713862780,130498,,1598,1
1620713862780,130518,,1641,1
1620713862780,130538,,1714,1
1620713862780,130558,,1815,1
1620713862780,130578,,1979,1
1620713862780,130599,,2174,1
1620713862780,130619,,2327,1
1620713862780,130639,,2438,1
1620713862780,130659,,2416,1
1620713862780,130679,,2321,1
1620713862780,130699,,2192,1
1620713862780,130719,,2035,1
1620713862780,130739,,1953,1
1620713862780,130759,,1839,1
1620713862780,130779,,1744,1
1620713862780,130799,,1690,1
1620713863281,130819,,1694,1
1620713863281,130839,,1836,1
1620713863281,130859,,1945,1
1620713863281,130879,,1957,1
1620713863281,130899,,1854,1
1620713863281,130919,,1745,1
1620713863281,130939,,1746,1
1620713863281,130959,,1713,1
1620713863281,130979,,1687,1
1620713863281,130999,,1671,1
1620713863281,131019,,1655,1
1620713863281,131040,,1706,1
1620713863281,131060,,1706,1
1620713863281,131080,,1692,1
1620713863281,131100,,1689,1
1620713863281,131120,,1685,1
1620713863281,131140,,1776,1
1620713863281,131160,,1890,1
1620713863281,131180,,2043,1
1620713863281,131200,,2209,1
1620713863281,131220,,2320,1
1620713863281,131240,,2384,1
1620713863281,131261,,2343,1
1620713863281,131281,,2225,1
1620713863281,131301,,2085,1
1620713863786,131321,,1959,1
1620713863786,131341,,1947,1
1620713863786,131361,,1947,1
1620713863786,131381,,1849,1
1620713863786,131401,,1714,1
1620713863786,131421,,1652,1
1620713863786,131441,,1670,1
1620713863786,131461,,1724,1
1620713863786,131482,,1760,1
1620713863786,131502,,1785,1
1620713863786,131522,,1801,1
1620713863786,131542,,1822,1
1620713863786,131562,,1823,1
1620713863786,131582,,1795,1
1620713863786,131602,,1757,1
1620713863786,131622,,1728,1
1620713863786,131642,,1700,1
1620713863786,131662,,1712,1
1620713863786,131682,,1693,1
1620713863786,131703,,1712,1
1620713863786,131723,,1778,1
1620713863786,131743,,1902,1
1620713863786,131763,,2111,1
1620713863786,131783,,2245,1
1620713863786,131803,,2320,1
1620713864319,131824,,2333,1
1620713864319,131844,,2362,1
1620713864319,131864,,2290,1
1620713864319,131884,,2190,1
1620713864319,131904,,2077,1
1620713864319,131925,,1865,1
1620713864319,131945,,1627,1
1620713864319,131965,,1583,1
1620713864319,131985,,1561,1
1620713864319,132005,,1584,1
1620713864319,132025,,1647,1
1620713864319,132045,,1690,1
1620713864319,132065,,1798,1
1620713864319,132085,,1826,1
1620713864319,132105,,1824,1
1620713864319,132125,,1808,1
1620713864319,132146,,1755,1
1620713864319,132166,,1776,1
1620713864319,132186,,1739,1
1620713864319,132206,,1703,1
1620713864319,132226,,1680,1
1620713864319,132246,,1665,1
1620713864319,132266,,1702,1
1620713864319,132286,,1745,1
1620713864319,132306,,1843,1
1620713864800,132327,,2019,1
1620713864800,132347,,2267,1
1620713864800,132368,,2501,1
1620713864800,132388,,2480,1
1620713864800,132408,,2305,1
1620713864800,132428,,2117,1
1620713864800,132448,,1953,1
1620713864800,132468,,1855,1
1620713864800,132488,,1773,1
1620713864800,132508,,1705,1
1620713864800,132528,,1677,1
1620713864800,132548,,1681,1
1620713864800,132568,,1719,1
1620713864800,132589,,1763,1
1620713864800,132609,,1795,1
1620713864800,132629,,1811,1
1620713864800,132649,,1824,1
1620713864800,132669,,1838,1
1620713864800,132689,,1842,1
1620713864800,132709,,1802,1
1620713864800,132729,,1745,1
1620713864800,132749,,1709,1
1620713864800,132769,,1681,1
1620713864800,132789,,1699,1
1620713864800,132810,,1681,1
1620713865300,132831,,1693,1
1620713865300,132851,,1811,1
1620713865300,132871,,1936,1
1620713865300,132891,,1995,1
1620713865300,132911,,2031,1
1620713865300,132931,,2107,1
1620713865300,132951,,2181,1
1620713865300,132971,,2198,1
1620713865300,132991,,2215,1
1620713865300,133011,,2128,1
1620713865300,133032,,2016,1
1620713865300,133052,,1921,1
1620713865300,133072,,1819,1
1620713865300,133092,,1812,1
1620713865300,133112,,1764,1
1620713865300,133132,,1739,1
1620713865300,133152,,1735,1
1620713865300,133172,,1714,1
1620713865300,133192,,1798,1
1620713865300,133212,,1811,1
1620713865300,133232,,1808,1
1620713865300,133253,,1792,1
1620713865300,133273,,1746,1
1620713865300,133293,,1785,1
1620713865300,133313,,1761,1
1620713865795,133334,,1739,1
1620713865795,133354,,1819,1
1620713865795,133374,,1877,1
1620713865795,133394,,1867,1
1620713865795,133414,,1735,1
1620713865795,133434,,1638,1
1620713865795,133454,,1619,1
1620713865795,133475,,1680,1
1620713865795,133495,,1879,1
1620713865795,133515,,2067,1
1620713865795,133535,,2205,1
1620713865795,133555,,2282,0
1620713865795,133575,,2278,0
1620713865795,133595,,2235,0
1620713865795,133615,,2131,0
1620713865795,133635,,2001,0
1620713865795,133655,,1881,0
1620713865795,133675,,1792,0
1620713865795,133696,,1756,0
1620713865795,133716,,1741,0
1620713865795,133736,,1734,0
1620713865795,133756,,1759,0
1620713865795,133776,,1795,0
1620713865795,133796,,1845,0
1620713865795,133816,,1875,0
1620713866303,133836,,1879,0
1620713866303,133856,,1950,0
1620713866303,133876,,2001,0
1620713866303,133896,,1924,0
1620713866303,133917,,1792,0
1620713866303,133937,,1676,0
1620713866303,133957,,1616,0
1620713866303,133977,,1600,0
1620713866303,133997,,1607,0
1620713866303,134017,,1669,0
1620713866303,134037,,1723,0
1620713866303,134057,,1828,0
1620713866303,134077,,1979,0
1620713866303,134097,,2120,0
1620713866303,134117,,2289,0
1620713866303,134138,,2341,0
1620713866303,134158,,2295,0
1620713866303,134178,,2204,0
1620713866303,134198,,2061,0
1620713866303,134218,,1979,0
1620713866303,134238,,1872,0
1620713866303,134258,,1781,0
1620713866303,134278,,1730,0
1620713866303,134298,,1680,0
1620713866303,134318,,1755,0
1620713866802,134339,,1799,0
1620713866802,134360,,1936,0
1620713866802,134380,,2047,0
1620713866802,134400,,1952,0
1620713866802,134420,,1883,0
1620713866802,134440,,1781,0
1620713866802,134460,,1707,0
1620713866802,134480,,1667,0
1620713866802,134500,,1649,0
1620713866802,134520,,1690,0
1620713866802,134540,,1712,0
1620713866802,134560,,1722,1
1620713866802,134581,,1731,1
1620713866802,134601,,1747,1
1620713866802,134621,,1855,1
1620713866802,134641,,1989,1
1620713866802,134661,,2146,1
1620713866802,134681,,2263,0
1620713866802,134701,,2326,0
1620713866802,134721,,2330,0
1620713866802,134741,,2261,0
1620713866802,134761,,2138,0
1620713866802,134781,,2002,0
1620713866802,134802,,1894,0
1620713866802,134822,,1825,0
1620713867304,134843,,1789,0
1620713867304,134863,,1857,0
1620713867304,134883,,1926,0
1620713867304,134903,,1877,0
1620713867304,134923,,1798,0
1620713867304,134943,,1782,0
1620713867304,134963,,1744,0
1620713867304,134983,,1729,0
1620713867304,135003,,1733,0
1620713867304,135024,,1749,0
1620713867304,135044,,1776,0
1620713867304,135064,,1763,0
1620713867304,135084,,1749,0
1620713867304,135104,,1730,0
1620713867304,135124,,1718,0
1620713867304,135144,,1734,0
1620713867304,135164,,1730,0
1620713867304,135184,,1769,0
1620713867304,135204,,1873,0
1620713867304,135224,,2041,0
1620713867304,135245,,2255,0
1620713867304,135265,,2363,0
1620713867304,135285,,2393,0
1620713867304,135305,,2333,0
1620713867304,135325,,2208,0
1620713867808,135346,,2138,0
1620713867808,135366,,2107,0
1620713867808,135386,,2069,0
1620713867808,135406,,1906,0
1620713867808,135426,,1694,0
1620713867808,135446,,1654,0
1620713867808,135467,,1626,0
1620713867808,135487,,1648,0
1620713867808,135507,,1696,0
1620713867808,135527,,1721,0
1620713867808,135547,,1822,0
1620713867808,135567,,1837,0
1620713867808,135587,,1827,0
1620713867808,135607,,1807,0
1620713867808,135627,,1776,0
1620713867808,135647,,1793,0
1620713867808,135667,,1766,0
1620713867808,135688,,1734,1
1620713867808,135708,,1712,1
1620713867808,135728,,1696,1
1620713867808,135748,,1742,1
1620713867808,135768,,1799,1
1620713867808,135788,,1917,1
1620713867808,135808,,2087,1
1620713867808,135828,,2241,0
1620713868314,135848,,2351,0
1620713868314,135868,,2471,0
1620713868314,135888,,2498,0
1620713868314,135909,,2334,0
1620713868314,135929,,2094,0
1620713868314,135949,,1899,0
1620713868314,135969,,1764,0
1620713868314,135989,,1669,0
1620713868314,136009,,1622,0
1620713868314,136029,,1632,0
1620713868314,136049,,1681,0
1620713868314,136069,,1766,0
1620713868314,136089,,1813,0
1620713868314,136109,,1842,0
1620713868314,136130,,1847,0
1620713868314,136150,,1856,0
1620713868314,136170,,1850,0
1620713868314,136190,,1808,0
1620713868314,136210,,1763,0
1620713868314,136230,,1727,0
1620713868314,136250,,1699,0
1620713868314,136270,,1718,0
1620713868314,136290,,1721,0
1620713868314,136310,,1756,0
1620713868314,136330,,1815,0
1620713868812,136350,,1894,0
1620713868812,136370,,2150,0
1620713868812,136390,,2337,0
1620713868812,136410,,2480,0
1620713868812,136430,,2425,0
1620713868812,136450,,2302,0
1620713868812,136470,,2261,0
1620713868812,136490,,2147,0
1620713868812,136510,,2026,0
1620713868812,136530,,1908,0
1620713868812,136550,,1792,0
1620713868812,136571,,1771,0
1620713868812,136591,,1721,0
1620713868812,136611,,1708,0
1620713868812,136631,,1728,0
1620713868812,136651,,1770,0
1620713868812,136671,,1927,0
1620713868812,136691,,2071,0
1620713868812,136711,,2221,0
1620713868812,136731,,2331,0
1620713868812,136751,,2337,0
1620713868812,136771,,2305,0
1620713868812,136792,,2238,0
1620713868812,136812,,2165,0
1620713868812,136832,,2176,0
1620713869316,136853,,2298,0
1620713869316,136873,,2510,0
1620713869316,136893,,2587,0
1620713869316,136913,,2529,0
1620713869316,136933,,2453,0
1620713869316,136953,,2288,0
1620713869316,136973,,2260,0
1620713869316,136993,,2337,0
1620713869316,137014,,2410,0
1620713869316,137034,,2477,0
1620713869316,137054,,2549,0
1620713869316,137074,,2603,0
1620713869316,137094,,2574,0
1620713869316,137114,,2462,0
1620713869316,137134,,2339,0
1620713869316,137154,,2221,0
1620713869316,137174,,2096,0
1620713869316,137194,,2000,0
1620713869316,137214,,1900,0
1620713869316,137235,,1850,0
1620713869316,137255,,1813,0
1620713869316,137275,,1741,0
1620713869316,137295,,1666,0
1620713869316,137315,,1534,0
1620713869316,137335,,1446,0
1620713869828,137356,,1446,0
1620713869828,137376,,1617,0
1620713869828,137396,,1820,0
1620713869828,137416,,1946,0
1620713869828,137436,,2000,0
1620713869828,137457,,2047,0
1620713869828,137477,,2202,0
1620713869828,137497,,2541,0
1620713869828,137517,,2909,0
1620713869828,137537,,3381,0
1620713869828,137557,,3959,0
1620713869828,137577,,3965,0
1620713869828,137597,,3966,0
1620713869828,137617,,3968,0
1620713869828,137637,,3967,0
1620713869828,137657,,3971,0
1620713869828,137678,,3968,0
1620713869828,137698,,3959,0
1620713869828,137718,,3963,0
1620713869828,137738,,3960,0
1620713869828,137758,,3965,0
1620713869828,137778,,3966,0
1620713869828,137798,,3967,0
1620713869828,137818,,3970,0
1620713869828,137838,,3969,0
1620713870324,137859,,3964,0
1620713870324,137879,,3967,0
1620713870324,137900,,3970,0
1620713870324,137920,,3973,0
1620713870324,137940,,3970,0
1620713870324,137960,,3973,0
1620713870324,137980,,3966,0
1620713870324,138000,,3967,0
1620713870324,138020,,3969,0
1620713870324,138040,,3967,0
1620713870324,138060,,3397,0
1620713870324,138080,,2845,0
1620713870324,138100,,2653,0
1620713870324,138121,,2612,0
1620713870324,138141,,2650,0
1620713870324,138161,,2656,0
1620713870324,138181,,2543,0
1620713870324,138201,,2345,0
1620713870324,138221,,2096,0
1620713870324,138241,,1755,0
1620713870324,138261,,1335,0
1620713870324,138281,,591,0
1620713870324,138301,,0,0
1620713870324,138321,,0,0
1620713870324,138342,,0,0
1620713870827,138363,,0,0
1620713870827,138383,,432,0
1620713870827,138403,,1164,0
1620713870827,138423,,1585,0
1620713870827,138443,,1715,0
1620713870827,138463,,1705,0
1620713870827,138483,,1648,0
1620713870827,138503,,1636,0
1620713870827,138523,,1603,0
1620713870827,138543,,1422,0
1620713870827,138564,,1264,0
1620713870827,138584,,1175,0
1620713870827,138604,,1127,0
1620713870827,138624,,1189,0
1620713870827,138644,,1247,0
1620713870827,138664,,1317,0
1620713870827,138684,,1345,0
1620713870827,138704,,1306,0
1620713870827,138724,,1268,0
1620713870827,138744,,913,0
1620713870827,138764,,427,0
1620713870827,138785,,128,0
1620713870827,138805,,65,0
1620713870827,138825,,318,0
1620713870827,138845,,681,0
1620713867304,135003,,1733,0
1620713867304,135024,,1749,0
1620713867304,135044,,1776,0
1620713867304,135064,,1763,0
1620713867304,135084,,1749,0
1620713867304,135104,,1730,0
1620713867304,135124,,1718,0
1620713867304,135144,,1734,0
1620713867304,135164,,1730,0
1620713867304,135184,,1769,0
1620713867304,135204,,1873,0
1620713867304,135224,,2041,0
1620713867304,135245,,2255,0
1620713867304,135265,,2363,0
1620713867304,135285,,2393,0
1620713867304,135305,,2333,0
1620713867304,135325,,2208,0
1620713867808,135346,,2138,0
1620713867808,135366,,2107,0
1620713867808,135386,,2069,0
1620713867808,135406,,1906,0
1620713867808,135426,,1694,0
1620713867808,135446,,1654,0
1620713867808,135467,,1626,0
1620713867808,135487,,1648,0
1620713867808,135507,,1696,0
1620713867808,135527,,1721,0
1620713867808,135547,,1822,0
1620713867808,135567,,1837,0
1620713867808,135587,,1827,0
1620713867808,135607,,1807,0
1620713867808,135627,,1776,0
1620713867808,135647,,1793,0
1620713867808,135667,,1766,0
1620713867808,135688,,1734,1
1620713867808,135708,,1712,1
1620713867808,135728,,1696,1
1620713867808,135748,,1742,1
1620713867808,135768,,1799,1
1620713867808,135788,,1917,1
1620713867808,135808,,2087,1
1620713867808,135828,,2241,0
1620713868314,135848,,2351,0
1620713868314,135868,,2471,0
1620713868314,135888,,2498,0
1620713868314,135909,,2334,0
1620713868314,135929,,2094,0
1620713868314,135949,,1899,0
1620713868314,135969,,1764,0
1620713868314,135989,,1669,0
1620713868314,136009,,1622,0
1620713868314,136029,,1632,0
1620713868314,136049,,1681,0
1620713868314,136069,,1766,0
1620713868314,136089,,1813,0
1620713868314,136109,,1842,0
1620713868314,136130,,1847,0
1620713868314,136150,,1856,0
1620713868314,136170,,1850,0
1620713868314,136190,,1808,0
1620713868314,136210,,1763,0
1620713868314,136230,,1727,0
1620713868314,136250,,1699,0
1620713868314,136270,,1718,0
1620713868314,136290,,1721,0
1620713868314,136310,,1756,0
1620713868314,136330,,1815,0
1620713868812,136350,,1894,0
1620713868812,136370,,2150,0
1620713868812,136390,,2337,0
1620713868812,136410,,2480,0
1620713868812,136430,,2425,0
1620713868812,136450,,2302,0
1620713868812,136470,,2261,0
1620713868812,136490,,2147,0
1620713868812,136510,,2026,0
1620713868812,136530,,1908,0
1620713868812,136550,,1792,0
1620713868812,136571,,1771,0
1620713868812,136591,,1721,0
1620713868812,136611,,1708,0
1620713868812,136631,,1728,0
1620713868812,136651,,1770,0
1620713868812,136671,,1927,0
1620713868812,136691,,2071,0
1620713868812,136711,,2221,0
1620713868812,136731,,2331,0
1620713868812,136751,,2337,0
1620713868812,136771,,2305,0
1620713868812,136792,,2238,0
1620713868812,136812,,2165,0
1620713868812,136832,,2176,0
1620713869316,136853,,2298,0
1620713869316,136873,,2510,0
1620713869316,136893,,2587,0
1620713869316,136913,,2529,0
1620713869316,136933,,2453,0
1620713869316,136953,,2288,0
1620713869316,136973,,2260,0
1620713869316,136993,,2337,0
1620713869316,137014,,2410,0
1620713869316,137034,,2477,0
1620713869316,137054,,2549,0
1620713869316,137074,,2603,0
1620713869316,137094,,2574,0
1620713869316,137114,,2462,0
1620713869316,137134,,2339,0
1620713869316,137154,,2221,0
1620713869316,137174,,2096,0
1620713869316,137194,,2000,0
1620713869316,137214,,1900,0
1620713869316,137235,,1850,0
1620713869316,137255,,1813,0
1620713869316,137275,,1741,0
1620713869316,137295,,1666,0
1620713869316,137315,,1534,0
1620713869316,137335,,1446,0
1620713869828,137356,,1446,0
1620713869828,137376,,1617,0
1620713869828,137396,,1820,0
1620713869828,137416,,1946,0
1620713869828,137436,,2000,0
1620713869828,137457,,2047,0
1620713869828,137477,,2202,0
1620713869828,137497,,2541,0
1620713869828,137517,,2909,0
1620713869828,137537,,3381,0
1620713869828,137557,,3959,0
1620713869828,137577,,3965,0
1620713869828,137597,,3966,0
1620713869828,137617,,3968,0
1620713869828,137637,,3967,0
1620713869828,137657,,3971,0
1620713869828,137678,,3968,0
1620713869828,137698,,3959,0
1620713869828,137718,,3963,0
1620713869828,137738,,3960,0
1620713869828,137758,,3965,0
1620713869828,137778,,3966,0
1620713869828,137798,,3967,0
1620713869828,137818,,3970,0
1620713869828,137838,,3969,0
1620713870324,137859,,3964,0
1620713870324,137879,,3967,0
1620713870324,137900,,3970,0
1620713870324,137920,,3973,0
1620713870324,137940,,3970,0
1620713870324,137960,,3973,0
1620713870324,137980,,3966,0
1620713870324,138000,,3967,0
1620713870324,138020,,3969,0
1620713870324,138040,,3967,0
1620713870324,138060,,3397,0
1620713870324,138080,,2845,0
1620713870324,138100,,2653,0
1620713870324,138121,,2612,0
1620713870324,138141,,2650,0
1620713870324,138161,,2656,0
1620713870324,138181,,2543,0
1620713870324,138201,,2345,0
1620713870324,138221,,2096,0
1620713870324,138241,,1755,0
1620713870324,138261,,1335,0
1620713870324,138281,,591,0
1620713870324,138301,,0,0
1620713870324,138321,,0,0
1620713870324,138342,,0,0
1620713870827,138363,,0,0
1620713870827,138383,,432,0
1620713870827,138403,,1164,0
1620713870827,138423,,1585,0
1620713870827,138443,,1715,0
1620713870827,138463,,1705,0
1620713870827,138483,,1648,0
1620713870827,138503,,1636,0
1620713870827,138523,,1603,0
1620713870827,138543,,1422,0
1620713870827,138564,,1264,0
1620713870827,138584,,1175,0
1620713870827,138604,,1127,0
1620713870827,138624,,1189,0
1620713870827,138644,,1247,0
1620713870827,138664,,1317,0
1620713870827,138684,,1345,0
1620713870827,138704,,1306,0
1620713870827,138724,,1268,0
1620713870827,138744,,913,0
1620713870827,138764,,427,0
1620713870827,138785,,128,0
1620713870827,138805,,65,0
1620713870827,138825,,318,0
1620713870827,138845,,681,0
1620713871330,138866,,1156,0
1620713871330,138886,,1613,0
1620713871330,138906,,1843,0
1620713871330,138926,,1905,0
1620713871330,138946,,1699,0
1620713871330,138966,,1442,0
1620713871330,138986,,1246,0
1620713871330,139007,,1109,0
1620713871330,139027,,1134,0
1620713871330,139047,,1142,0
1620713871330,139067,,1198,0
1620713871330,139087,,1297,1
1620713871330,139107,,1373,1
1620713871330,139127,,1476,1
1620713871330,139147,,1584,1
1620713871330,139167,,1726,1
1620713871330,139187,,1904,1
1620713871330,139207,,2096,1
1620713871330,139228,,2259,1
1620713871330,139248,,2285,1
1620713871330,139268,,2157,1
1620713871330,139288,,1957,1
1620713871330,139308,,1717,1
1620713871330,139328,,1513,1
1620713871330,139348,,1371,1
1620713871835,139368,,1280,1
1620713871835,139388,,1363,1
1620713871835,139408,,1482,1
1620713871835,139428,,1487,1
1620713871835,139449,,1433,1
1620713871835,139469,,1386,1
1620713871835,139489,,1403,1
1620713871835,139509,,1386,1
1620713871835,139529,,1354,1
1620713871835,139549,,1327,1
1620713871835,139569,,1228,1
1620713871835,139589,,1104,1
1620713871835,139609,,980,1
1620713871835,139629,,896,1
1620713871835,139649,,884,1
1620713871835,139670,,875,1
1620713871835,139690,,933,1
1620713871835,139710,,1077,1
1620713871835,139730,,1283,1
1620713871835,139750,,1519,1
1620713871835,139770,,1665,1
1620713871835,139790,,1744,1
1620713871835,139810,,1755,1
1620713871835,139830,,1685,1
1620713871835,139850,,1649,1
1620713872335,139871,,1523,1
1620713872335,139892,,1506,1
1620713872335,139912,,1490,1
1620713872335,139932,,1342,1
1620713872335,139952,,1295,1
1620713872335,139972,,1232,1
1620713872335,139992,,1229,1
1620713872335,140012,,1270,1
1620713872335,140032,,1325,1
1620713872335,140052,,1459,1
1620713872335,140072,,1515,1
1620713872335,140092,,1526,0
1620713872335,140113,,1530,0
1620713872335,140133,,1517,0
1620713872335,140153,,1554,0
1620713872335,140173,,1550,0
1620713872335,140193,,1520,0
1620713872335,140213,,1520,0
1620713872335,140233,,1567,0
1620713872335,140253,,1693,0
1620713872335,140273,,1825,0
1620713872335,140293,,1917,0
1620713872335,140313,,1962,0
1620713872335,140334,,1948,0
1620713872335,140354,,1909,0
1620713872836,140374,,1840,0
1620713872836,140394,,1853,0
1620713872836,140414,,1840,0
1620713872836,140434,,1711,0
1620713872836,140454,,1553,0
1620713872836,140474,,1460,0
1620713872836,140494,,1415,0
1620713872836,140514,,1437,0
1620713872836,140534,,1493,0
1620713872836,140555,,1587,0
1620713872836,140575,,1658,0
1620713872836,140595,,1685,0
1620713872836,140615,,1691,0
1620713872836,140635,,1680,0
1620713872836,140655,,1669,0
1620713872836,140675,,1671,0
1620713872836,140695,,1643,0
1620713872836,140715,,1617,0
1620713872836,140735,,1618,0
1620713872836,140755,,1659,0
1620713872836,140776,,1794,0
1620713872836,140796,,1881,0
1620713872836,140816,,1957,0
1620713872836,140836,,1995,0
1620713872836,140856,,1985,0
1620713873340,140876,,1977,0
1620713873340,140896,,2000,0
1620713873340,140916,,2005,0
1620713873340,140936,,1872,0
1620713873340,140956,,1661,0
1620713873340,140976,,1598,0
1620713873340,140997,,1530,0
1620713873340,141017,,1523,0
1620713873340,141037,,1566,0
1620713873340,141057,,1594,0
1620713873340,141077,,1705,0
1620713873340,141097,,1735,0
1620713873340,141117,,1744,0
1620713873340,141137,,1747,0
1620713873340,141157,,1729,0
1620713873340,141177,,1756,0
1620713873340,141197,,1731,0
1620713873340,141218,,1707,0
1620713873340,141238,,1680,0
1620713873340,141258,,1676,0
1620713873340,141278,,1745,1
1620713873340,141298,,1826,1
1620713873340,141318,,1909,1
1620713873340,141338,,1987,1
1620713873340,141358,,2021,1
1620713873843,141378,,2031,1
1620713873843,141398,,2094,1
1620713873843,141418,,2070,1
1620713873843,141439,,1984,1
1620713873843,141459,,1791,1
1620713873843,141479,,1663,1
1620713873843,141499,,1594,1
1620713873843,141519,,1567,1
1620713873843,141539,,1583,1
1620713873843,141559,,1618,1
1620713873843,141579,,1701,1
1620713873843,141599,,1773,1
1620713873843,141619,,1801,1
1620713873843,141639,,1809,1
1620713873843,141660,,1803,1
1620713873843,141680,,1789,1
1620713873843,141700,,1799,1
1620713873843,141720,,1771,1
1620713873843,141740,,1739,1
1620713873843,141760,,1717,1
1620713873843,141780,,1686,1
1620713873843,141800,,1820,1
1620713873843,141820,,1975,0
1620713873843,141840,,2114,0
1620713873843,141860,,2192,0
1620713874349,141880,,2220,0
1620713874349,141900,,2181,0
1620713874349,141920,,2103,0
1620713874349,141940,,2031,0
1620713874349,141960,,1851,0
1620713874349,141980,,1671,0
1620713874349,142000,,1602,0
1620713874349,142020,,1563,0
1620713874349,142040,,1570,0
1620713874349,142060,,1611,0
1620713874349,142080,,1639,0
1620713874349,142100,,1759,0
1620713874349,142120,,1808,0
1620713874349,142140,,1830,0
1620713874349,142160,,1844,0
1620713874349,142180,,1831,0
1620713874349,142200,,1845,0
1620713874349,142220,,1819,0
1620713874349,142240,,1786,0
1620713874349,142260,,1756,0
1620713874349,142280,,1739,0
1620713874349,142300,,1738,0
1620713874349,142321,,1849,0
1620713874349,142341,,1952,0
1620713874349,142361,,2041,0
1620713874853,142381,,2147,0
1620713874853,142401,,2187,0
1620713874853,142421,,2213,0
1620713874853,142441,,2097,0
1620713874853,142461,,1927,0
1620713874853,142481,,1803,0
1620713874853,142501,,1739,0
1620713874853,142521,,1711,0
1620713874853,142542,,1691,0
1620713874853,142562,,1690,0
1620713874853,142582,,1709,0
1620713874853,142602,,1749,0
1620713874853,142622,,1798,0
1620713874853,142642,,1812,0
1620713874853,142662,,1825,0
1620713874853,142682,,1834,0
1620713874853,142702,,1833,0
1620713874853,142722,,1845,0
1620713874853,142742,,1819,0
1620713874853,142763,,1793,0
1620713874853,142783,,1771,0
1620713874853,142803,,1727,0
1620713874853,142823,,1781,1
1620713874853,142843,,1764,1
1620713874853,142863,,1759,1
1620713875357,142883,,1787,1
1620713875357,142903,,1945,1
1620713875357,142923,,2129,0
1620713875357,142943,,2165,0
1620713875357,142963,,2115,0
1620713875357,142984,,2043,0
1620713875357,143004,,1930,0
1620713875357,143024,,1936,0
1620713875357,143044,,1856,0
1620713875357,143064,,1779,0
1620713875357,143084,,1728,0
1620713875357,143104,,1679,0
1620713875357,143124,,1732,0
1620713875357,143144,,1745,0
1620713875357,143164,,1763,0
1620713875357,143184,,1788,0
1620713875357,143205,,1807,0
1620713875357,143225,,1872,0
1620713875357,143245,,1870,0
1620713875357,143265,,1847,0
1620713875357,143285,,1825,0
1620713875357,143305,,1807,0
1620713875357,143325,,1819,0
1620713875357,143345,,1822,0
1620713875357,143365,,1825,0
1620713875847,143385,,1858,0
1620713875847,143405,,2002,0
1620713875847,143426,,2113,0
1620713875847,143446,,2234,0
1620713875847,143466,,2259,0
1620713875847,143486,,2305,0
1620713875847,143506,,2351,0
1620713875847,143526,,2369,0
1620713875847,143546,,2337,0
1620713875847,143566,,2253,0
1620713875847,143586,,2155,0
1620713875847,143606,,2064,0
1620713875847,143626,,1991,0
1620713875847,143647,,1941,0
1620713875847,143667,,1887,0
1620713875847,143687,,1856,0
1620713875847,143707,,1850,0
1620713875847,143727,,1871,0
1620713875847,143747,,1904,0
1620713875847,143767,,1893,0
1620713875847,143787,,1878,0
1620713875847,143807,,1854,0
1620713875847,143827,,1824,0
1620713875847,143847,,1841,0
1620713875847,143868,,1810,0
1620713876351,143889,,1796,0
1620713876351,143909,,1878,0
1620713876351,143929,,1936,0
1620713876351,143949,,1874,0
1620713876351,143969,,1775,0
1620713876351,143989,,1750,0
1620713876351,144009,,1817,0
1620713876351,144029,,1902,0
1620713876351,144049,,2078,0
1620713876351,144069,,2123,0
1620713876351,144090,,2112,0
1620713876351,144110,,2074,0
1620713876351,144130,,1971,0
1620713876351,144150,,1963,0
1620713876351,144170,,1873,0
1620713876351,144190,,1795,0
1620713876351,144210,,1738,0
1620713876351,144230,,1679,0
1620713876351,144250,,1729,0
1620713876351,144270,,1735,0
1620713876351,144290,,1739,0
1620713876351,144311,,1751,0
1620713876351,144331,,1753,0
1620713876351,144351,,1798,0
1620713876351,144371,,1794,0
1620713876854,144392,,1791,0
1620713876854,144412,,1873,0
1620713876854,144432,,1921,0
1620713876854,144452,,1871,0
1620713876854,144472,,1741,0
1620713876854,144492,,1637,0
1620713876854,144512,,1586,0
1620713876854,144533,,1589,0
1620713876854,144553,,1697,0
1620713876854,144573,,1831,0
1620713876854,144593,,1969,1
1620713876854,144613,,2087,1
1620713876854,144633,,2149,1
1620713876854,144653,,2176,1
1620713876854,144673,,2133,1
1620713876854,144693,,2043,1
1620713876854,144713,,1952,1
1620713876854,144733,,1867,1
1620713876854,144754,,1824,1
1620713876854,144774,,1789,1
1620713876854,144794,,1758,1
1620713876854,144814,,1758,1
1620713876854,144834,,1764,1
1620713876854,144854,,1783,1
1620713876854,144874,,1814,1
1620713877356,144895,,1840,1
1620713877356,144915,,1929,1
1620713877356,144935,,2001,1
1620713877356,144955,,1919,1
1620713877356,144976,,1802,1
1620713877356,144996,,1680,1
1620713877356,145016,,1613,1
1620713877356,145036,,1599,1
1620713877356,145056,,1617,1
1620713877356,145076,,1686,1
1620713877356,145096,,1722,1
1620713877356,145116,,1767,1
1620713877356,145136,,1841,1
1620713877356,145156,,1918,1
1620713877356,145176,,2087,1
1620713877356,145197,,2179,1
1620713877356,145217,,2206,1
1620713877356,145237,,2175,1
1620713877356,145257,,2079,1
1620713877356,145277,,2035,1
1620713877356,145297,,1947,1
1620713877356,145317,,1859,1
1620713877356,145337,,1791,1
1620713877356,145357,,1727,1
1620713877356,145378,,1766,1
1620713877861,145399,,1774,1
1620713877861,145420,,1893,1
1620713877861,145440,,2005,1
1620713877861,145460,,1918,1
1620713877861,145480,,1883,1
1620713877861,145500,,1808,1
1620713877861,145520,,1758,1
1620713877861,145540,,1734,1
1620713877861,145560,,1728,1
1620713877861,145580,,1777,1
1620713877861,145600,,1783,1
1620713877861,145620,,1776,1
1620713877861,145641,,1776,1
1620713877861,145661,,1765,1
1620713877861,145681,,1805,1
1620713877861,145701,,1809,1
1620713877861,145721,,1837,1
1620713877861,145741,,1904,1
1620713877861,145761,,2005,1
1620713877861,145781,,2139,1
1620713877861,145801,,2212,1
1620713877861,145821,,2214,1
1620713877861,145841,,2161,1
1620713877861,145862,,2089,1
1620713877861,145882,,2006,1
1620713878366,145903,,1940,1
1620713878366,145923,,1967,1
1620713878366,145943,,1991,1
1620713878366,145963,,1904,1
1620713878366,145983,,1809,1
1620713878366,146003,,1794,1
1620713878366,146023,,1776,1
1620713878366,146043,,1783,1
1620713878366,146063,,1807,1
1620713878366,146084,,1844,1
1620713878366,146104,,1872,1
1620713878366,146124,,1869,1
1620713878366,146144,,1854,1
1620713878366,146164,,1834,1
1620713878366,146184,,1811,1
1620713878366,146204,,1850,1
1620713878366,146224,,1818,1
1620713878366,146244,,1789,1
1620713878366,146264,,1774,1
1620713878366,146284,,1781,1
1620713878366,146305,,1900,1
1620713878366,146325,,2005,1
1620713878366,146345,,2129,0
1620713878366,146365,,2226,0
1620713878366,146385,,2256,0
1620713878877,146406,,2304,0
1620713878877,146426,,2327,0
1620713878877,146446,,2310,0
1620713878877,146466,,2145,0
1620713878877,146486,,1898,0
1620713878877,146506,,1799,0
1620713878877,146527,,1707,0
1620713878877,146547,,1670,0
1620713878877,146567,,1680,0
1620713878877,146587,,1699,0
1620713878877,146607,,1815,0
1620713878877,146627,,1865,0
1620713878877,146647,,1875,0
1620713878877,146667,,1879,0
1620713878877,146687,,1840,0
1620713878877,146707,,1872,0
1620713878877,146727,,1840,0
1620713878877,146748,,1799,0
1620713878877,146768,,1777,0
1620713878877,146788,,1756,0
1620713878877,146808,,1787,0
1620713878877,146828,,1792,0
1620713878877,146848,,1808,0
1620713878877,146868,,1867,0
1620713878877,146888,,1975,0
1620713879371,146909,,2145,0
1620713879371,146929,,2368,0
1620713879371,146949,,2455,0
1620713879371,146970,,2439,0
1620713879371,146990,,2247,0
1620713879371,147010,,2082,0
1620713879371,147030,,1920,0
1620713879371,147050,,1799,0
1620713879371,147070,,1727,0
1620713879371,147090,,1698,0
1620713879371,147110,,1725,0
1620713879371,147130,,1775,0
1620713879371,147150,,1794,0
1620713879371,147170,,1822,0
1620713879371,147191,,1846,0
1620713879371,147211,,1887,0
1620713879371,147231,,1904,0
1620713879371,147251,,1890,0
1620713879371,147271,,1866,0
1620713879371,147291,,1834,0
1620713879371,147311,,1816,0
1620713879371,147331,,1805,0
1620713879371,147351,,1771,1
1620713879371,147371,,1746,1
1620713879371,147391,,1742,1
1620713879982,147411,,1749,1
1620713879982,147431,,1903,1
1620713879982,147451,,2077,1
1620713879982,147471,,2181,1
1620713879982,147491,,2210,1
1620713879982,147511,,2211,1
1620713879982,147531,,2262,1
1620713879982,147551,,2214,1
1620713879982,147571,,2130,1
1620713879982,147591,,2039,1
1620713879982,147611,,1937,1
1620713879982,147631,,1926,1
1620713879982,147651,,1867,1
1620713879982,147671,,1814,1
1620713879982,147691,,1781,1
1620713879982,147711,,1744,1
1620713879982,147731,,1807,1
1620713879982,147751,,1824,1
1620713879982,147771,,1839,1
1620713879982,147791,,1855,1
1620713879982,147811,,1858,1
1620713879982,147831,,1871,1
1620713879982,147852,,1855,1
1620713879982,147872,,1815,1
1620713879982,147892,,1785,1
1620713880374,147913,,1781,1
1620713880374,147933,,1863,1
1620713880374,147953,,1935,1
1620713880374,147973,,1859,1
1620713880374,147993,,1743,1
1620713880374,148013,,1689,1
1620713880374,148033,,1740,1
1620713880374,148053,,1862,1
1620713880374,148074,,2031,1
1620713880374,148094,,2183,1
1620713880374,148114,,2263,1
1620713880374,148134,,2302,1
1620713880374,148154,,2256,1
1620713880374,148174,,2141,1
1620713880374,148194,,2014,1
1620713880374,148214,,1901,1
1620713880374,148234,,1828,1
1620713880374,148254,,1787,1
1620713880374,148274,,1745,1
1620713880374,148295,,1735,1
1620713880374,148315,,1751,1
1620713880374,148335,,1794,1
1620713880374,148355,,1850,1
1620713880374,148375,,1862,1
1620713880374,148395,,1862,1
1620713880878,148415,,1857,1
1620713880878,148435,,1949,1
1620713880878,148455,,1969,1
1620713880878,148475,,1953,1
1620713880878,148495,,1936,1
1620713880878,148516,,1782,1
1620713880878,148536,,1638,1
1620713880878,148556,,1609,1
1620713880878,148576,,1585,1
1620713880878,148596,,1605,1
1620713880878,148616,,1686,1
1620713880878,148636,,1819,1
1620713880878,148656,,2053,1
1620713880878,148676,,2210,1
1620713880878,148696,,2301,1
1620713880878,148716,,2311,1
1620713880878,148737,,2215,1
1620713880878,148757,,2163,1
1620713880878,148777,,2023,1
1620713880878,148797,,1898,1
1620713880878,148817,,1795,1
1620713880878,148837,,1717,1
1620713880878,148857,,1728,1
1620713880878,148877,,1729,1
1620713880878,148897,,1745,1
1620713881380,148917,,1781,1
1620713881380,148937,,1932,1
1620713881380,148958,,2043,1
1620713881380,148978,,1998,1
1620713881380,148998,,1872,1
1620713881380,149018,,1767,1
1620713881380,149038,,1700,1
1620713881380,149058,,1684,1
1620713881380,149078,,1677,1
1620713881380,149098,,1677,1
1620713881380,149118,,1687,1
1620713881380,149138,,1703,1
1620713881380,149158,,1747,1
1620713881380,149179,,1819,1
1620713881380,149199,,1926,1
1620713881380,149219,,2064,1
1620713881380,149239,,2189,1
1620713881380,149259,,2288,1
1620713881380,149279,,2282,1
1620713881380,149299,,2320,1
1620713881380,149319,,2288,1
1620713881380,149339,,2182,1
1620713881380,149359,,1915,1
1620713881380,149379,,1818,1
1620713881380,149400,,1773,1
1620713881881,149421,,1751,1
1620713881881,149441,,1749,1
1620713881881,149461,,1799,1
1620713881881,149481,,1762,1
1620713881881,149501,,1702,1
1620713881881,149521,,1681,1
1620713881881,149541,,1695,1
1620713881881,149561,,1707,1
1620713881881,149581,,1770,1
1620713881881,149601,,1773,1
1620713881881,149622,,1770,1
1620713881881,149642,,1762,1
1620713881881,149662,,1744,1
1620713881881,149682,,1773,1
1620713881881,149702,,1745,1
1620713881881,149722,,1747,1
1620713881881,149742,,1797,1
1620713881881,149762,,1872,1
1620713881881,149782,,2092,1
1620713881881,149802,,2225,0
1620713881881,149822,,2288,0
1620713881881,149843,,2283,0
1620713881881,149863,,2189,0
1620713881881,149883,,2141,0
1620713881881,149903,,2019,0
1620713882384,149923,,1905,0
1620713882384,149943,,1910,0
1620713882384,149963,,1920,0
1620713882384,149983,,1870,0
1620713882384,150003,,1749,0
1620713882384,150023,,1677,0
1620713882384,150043,,1665,0
1620713882384,150064,,1685,0
1620713882384,150084,,1765,0
1620713882384,150104,,1804,0
1620713882384,150124,,1811,0
1620713882384,150144,,1811,0
1620713882384,150164,,1807,0
1620713882384,150184,,1821,0
1620713882384,150204,,1809,0
1620713882384,150224,,1791,0
1620713882384,150244,,1762,0
1620713882384,150264,,1744,0
1620713882384,150285,,1771,0
1620713882384,150305,,1825,0
1620713882384,150325,,1927,0
1620713882384,150345,,2074,0
1620713882384,150365,,2207,0
1620713882384,150385,,2309,0
1620713882384,150405,,2326,0
1620713882887,150425,,2275,0
1620713882887,150445,,2274,0
1620713882887,150465,,2230,0
1620713882887,150485,,2083,0
1620713882887,150506,,1879,0
1620713882887,150526,,1713,0
1620713882887,150546,,1626,0
1620713882887,150566,,1610,0
1620713882887,150586,,1639,0
1620713882887,150606,,1724,0
1620713882887,150626,,1778,0
1620713882887,150646,,1827,0
1620713882887,150666,,1856,0
1620713882887,150686,,1858,0
1620713882887,150706,,1891,0
1620713882887,150727,,1859,0
1620713882887,150747,,1809,0
1620713882887,150767,,1769,0
1620713882887,150787,,1722,0
1620713882887,150807,,1756,0
1620713882887,150827,,1741,0
1620713882887,150847,,1728,0
1620713882887,150867,,1763,0
1620713882887,150887,,1825,0
1620713882887,150908,,2042,0
1620713883396,150928,,2218,0
1620713883396,150949,,2415,0
1620713883396,150969,,2522,0
1620713883396,150989,,2387,0
1620713883396,151009,,2224,0
1620713883396,151029,,2013,0
1620713883396,151049,,1840,0
1620713883396,151069,,1719,0
1620713883396,151089,,1648,0
1620713883396,151109,,1672,0
1620713883396,151129,,1695,0
1620713883396,151149,,1728,0
1620713883396,151170,,1776,0
1620713883396,151190,,1819,0
1620713883396,151210,,1888,0
1620713883396,151230,,1909,0
1620713883396,151250,,1909,0
1620713883396,151270,,1883,0
1620713883396,151290,,1841,0
1620713883396,151310,,1835,0
1620713883396,151330,,1814,0
1620713883396,151350,,1776,0
1620713883396,151370,,1751,0
1620713883396,151391,,1744,0
1620713883396,151411,,1769,0
1620713883896,151432,,1811,0
1620713883896,151452,,1973,0
1620713883896,151472,,2128,0
1620713883896,151492,,2272,0
1620713883896,151512,,2285,0
1620713883896,151532,,2260,0
1620713883896,151552,,2193,0
1620713883896,151572,,2114,0
1620713883896,151592,,2015,0
1620713883896,151613,,1930,0
1620713883896,151633,,1872,0
1620713883896,151653,,1808,0
1620713883896,151673,,1760,0
1620713883896,151693,,1738,0
1620713883896,151713,,1745,0
1620713883896,151733,,1818,0
1620713883896,151753,,1850,0
1620713883896,151773,,1876,0
1620713883896,151793,,1895,0
1620713883896,151813,,1878,0
1620713883896,151834,,1901,0
1620713883896,151854,,1866,0
1620713883896,151874,,1835,0
1620713883896,151894,,1802,0
1620713883896,151914,,1745,0
1620713884396,151934,,1820,0
1620713884396,151954,,1897,0
1620713884396,151974,,1955,0
1620713884396,151994,,1915,0
1620713884396,152014,,1852,0
1620713884396,152034,,1969,0
1620713884396,152055,,2076,0
1620713884396,152075,,2173,0
1620713884396,152095,,2224,0
1620713884396,152115,,2194,0
1620713884396,152135,,2205,0
1620713884396,152155,,2113,0
1620713884396,152175,,2002,0
1620713884396,152195,,1902,0
1620713884396,152215,,1808,0
1620713884396,152235,,1790,0
1620713884396,152255,,1770,0
1620713884396,152276,,1775,0
1620713884396,152296,,1798,0
1620713884396,152316,,1827,0
1620713884396,152336,,1886,0
1620713884396,152356,,1901,0
1620713884396,152376,,1887,0
1620713884396,152396,,1861,0
1620713884396,152416,,1840,0
1620713884900,152436,,1811,0
1620713884900,152456,,1893,0
1620713884900,152476,,1954,0
1620713884900,152497,,1892,0
1620713884900,152517,,1774,1
1620713884900,152537,,1729,1
1620713884900,152557,,1778,1
1620713884900,152577,,1903,1
1620713884900,152597,,2069,1
1620713884900,152617,,2224,1
1620713884900,152637,,2335,0
1620713884900,152657,,2380,0
1620713884900,152677,,2303,0
1620713884900,152697,,2186,0
1620713884900,152718,,2057,0
1620713884900,152738,,1935,0
1620713884900,152758,,1872,0
1620713884900,152778,,1798,0
1620713884900,152798,,1757,0
1620713884900,152818,,1751,0
1620713884900,152838,,1767,0
1620713884900,152858,,1837,0
1620713884900,152878,,1861,0
1620713884900,152898,,1881,0
1620713884900,152918,,1879,0
1620713885398,152938,,1871,0
1620713885398,152958,,1950,0
1620713885398,152978,,1999,0
1620713885398,152998,,1937,0
1620713885398,153018,,1792,0
1620713885398,153038,,1650,0
1620713885398,153058,,1667,0
1620713885398,153078,,1757,0
1620713885398,153098,,1871,0
1620713885398,153118,,2004,0
1620713885398,153138,,2177,0
1620713885398,153159,,2325,0
1620713885398,153179,,2314,0
1620713885398,153199,,2258,0
1620713885398,153219,,2186,0
1620713885398,153239,,2091,0
1620713885398,153259,,2044,0
1620713885398,153279,,1959,0
1620713885398,153299,,1883,0
1620713885398,153319,,1818,0
1620713885398,153339,,1782,0
1620713885398,153359,,1798,0
1620713885398,153380,,1810,0
1620713885398,153400,,1827,0
1620713885398,153420,,1843,0
1620713885906,153441,,1886,0
1620713885906,153461,,2000,0
1620713885906,153481,,2064,0
1620713885906,153501,,1973,0
1620713885906,153521,,1823,0
1620713885906,153541,,1712,0
1620713885906,153561,,1679,0
1620713885906,153581,,1665,0
1620713885906,153602,,1659,0
1620713885906,153622,,1663,0
1620713885906,153642,,1691,1
1620713885906,153662,,1793,1
1620713885906,153682,,1952,1
1620713885906,153702,,2128,1
1620713885906,153722,,2291,0
1620713885906,153742,,2399,0
1620713885906,153762,,2420,0
1620713885906,153782,,2397,0
1620713885906,153802,,2288,0
1620713885906,153823,,2133,0
1620713885906,153843,,1983,0
1620713885906,153863,,1858,0
1620713885906,153883,,1799,0
1620713885906,153903,,1737,0
1620713885906,153923,,1717,0
1620713886471,153944,,1747,0
1620713886471,153964,,1878,0
1620713886471,153984,,2005,0
1620713886471,154004,,2013,0
1620713886471,154024,,1904,0
1620713886471,154045,,1808,0
1620713886471,154065,,1724,0
1620713886471,154085,,1727,0
1620713886471,154105,,1697,0
1620713886471,154125,,1682,0
1620713886471,154145,,1695,0
1620713886471,154165,,1679,0
1620713886471,154185,,1744,0
1620713886471,154205,,1744,0
1620713886471,154225,,1784,0
1620713886471,154245,,1877,0
1620713886471,154266,,2000,0
1620713886471,154286,,2237,0
1620713886471,154306,,2454,0
1620713886471,154326,,2576,0
1620713886471,154346,,2490,0
1620713886471,154366,,2269,0
1620713886471,154386,,2079,0
1620713886471,154406,,2003,0
1620713886471,154426,,1933,0
1620713886915,154446,,1867,0
1620713886915,154466,,1815,0
1620713886915,154487,,1776,0
1620713886915,154507,,1763,0
1620713886915,154527,,1778,0
1620713886915,154547,,1805,0
1620713886915,154567,,1719,0
1620713886915,154587,,1706,0
1620713886915,154607,,1696,0
1620713886915,154627,,1695,0
1620713886915,154647,,1706,0
1620713886915,154667,,1727,0
1620713886915,154687,,1750,0
1620713886915,154708,,1767,0
1620713886915,154728,,1751,0
1620713886915,154748,,1741,0
1620713886915,154768,,1724,0
1620713886915,154788,,1746,0
1620713886915,154808,,1831,0
1620713886915,154828,,1962,0
1620713886915,154848,,2130,0
1620713886915,154868,,2283,0
1620713886915,154888,,2365,0
1620713886915,154908,,2384,0
1620713886915,154929,,2286,0
1620713887416,154950,,2149,0
1620713887416,154970,,2115,0
1620713887416,154990,,2064,0
1620713887416,155010,,1915,0
1620713887416,155030,,1727,0
1620713887416,155050,,1623,0
1620713887416,155070,,1594,0
1620713887416,155090,,1617,0
1620713887416,155110,,1731,0
1620713887416,155130,,1794,0
1620713887416,155151,,1825,0
1620713887416,155171,,1839,0
1620713887416,155191,,1808,0
1620713887416,155211,,1844,0
1620713887416,155231,,1814,0
1620713887416,155251,,1775,0
1620713887416,155271,,1744,0
1620713887416,155291,,1703,0
1620713887416,155311,,1744,0
1620713887416,155331,,1736,0
1620713887416,155351,,1762,0
1620713887416,155372,,1863,0
1620713887416,155392,,2000,0
1620713887416,155412,,2241,0
1620713887416,155432,,2352,0
1620713887923,155452,,2384,0
1620713887923,155472,,2439,0
1620713887923,155492,,2400,0
1620713887923,155512,,2261,0
1620713887923,155532,,2001,0
1620713887923,155552,,1785,0
1620713887923,155572,,1650,0
1620713887923,155593,,1600,0
1620713887923,155613,,1648,0
1620713887923,155633,,1700,0
1620713887923,155653,,1745,0
1620713887923,155673,,1797,0
1620713887923,155693,,1839,0
1620713887923,155713,,1876,0
1620713887923,155733,,1879,0
1620713887923,155753,,1855,0
1620713887923,155773,,1813,0
1620713887923,155793,,1778,0
1620713887923,155814,,1763,0
1620713887923,155834,,1750,0
1620713887923,155854,,1725,0
1620713887923,155874,,1702,0
1620713887923,155894,,1713,0
1620713887923,155914,,1802,0
1620713887923,155934,,1968,0
1620713888414,155954,,2160,0
1620713888414,155974,,2416,0
1620713888414,155994,,2544,0
1620713888414,156014,,2570,0
1620713888414,156035,,2382,0
1620713888414,156055,,2153,0
1620713888414,156075,,1946,0
1620713888414,156095,,1798,0
1620713888414,156115,,1684,0
1620713888414,156135,,1676,0
1620713888414,156155,,1655,0
1620713888414,156175,,1676,0
1620713888414,156195,,1722,0
1620713888414,156215,,1747,0
1620713888414,156235,,1853,0
1620713888414,156256,,1870,0
1620713888414,156276,,1872,0
1620713888414,156296,,1865,0
1620713888414,156316,,1809,0
1620713888414,156336,,1829,0
1620713888414,156356,,1785,0
1620713888414,156376,,1737,0
1620713888414,156396,,1706,0
1620713888414,156416,,1667,0
1620713888414,156436,,1717,0
1620713888917,156456,,1731,0
1620713888917,156477,,1923,0
1620713888917,156497,,2181,0
1620713888917,156517,,2273,0
1620713888917,156537,,2359,0
1620713888917,156557,,2352,0
1620713888917,156577,,2287,0
1620713888917,156597,,2178,0
1620713888917,156617,,2069,0
1620713888917,156637,,1968,0
1620713888917,156657,,1869,0
1620713888917,156677,,1786,0
1620713888917,156698,,1727,0
1620713888917,156718,,1697,0
1620713888917,156738,,1729,0
1620713888917,156758,,1764,0
1620713888917,156778,,1790,0
1620713888917,156798,,1813,0
1620713888917,156818,,1840,0
1620713888917,156838,,1861,0
1620713888917,156858,,1855,0
1620713888917,156878,,1821,0
1620713888917,156898,,1777,0
1620713888917,156919,,1753,0
1620713888917,156939,,1746,0
1620713889423,156960,,1763,0
1620713889423,156980,,1839,1
1620713889423,157000,,1904,1
1620713889423,157020,,1847,1
1620713889423,157040,,1778,1
1620713889423,157060,,1901,1
1620713889423,157080,,2022,1
1620713889423,157100,,2179,1
1620713889423,157120,,2288,1
1620713889423,157141,,2305,1
1620713889423,157161,,2304,1
1620713889423,157181,,2186,1
1620713889423,157201,,2031,1
1620713889423,157221,,1903,1
1620713889423,157241,,1792,1
1620713889423,157261,,1755,1
1620713889423,157281,,1676,1
1620713889423,157301,,1757,1
1620713889423,157321,,1858,1
1620713889423,157341,,1917,1
1620713889423,157362,,1923,1
1620713889423,157382,,1937,1
1620713889423,157402,,1924,1
1620713889423,157422,,1890,1
1620713889423,157442,,1855,1
1620713889928,157462,,1809,1
1620713889928,157482,,1770,1
1620713889928,157502,,1754,1
1620713889928,157522,,1674,1
1620713889928,157542,,1531,1
1620713889928,157562,,1534,1
1620713889928,157583,,1533,1
1620713889928,157603,,1615,1
1620713889928,157623,,1793,1
1620713889928,157643,,2004,1
1620713889928,157663,,2266,1
1620713889928,157683,,2402,1
1620713889928,157703,,2419,1
1620713889928,157723,,2349,1
1620713889928,157743,,2222,1
1620713889928,157763,,2096,1
1620713889928,157783,,1942,1
1620713889928,157804,,1798,1
1620713889928,157824,,1711,1
1620713889928,157844,,1665,1
1620713889928,157864,,1693,1
1620713889928,157884,,1741,1
1620713889928,157904,,1789,1
1620713889928,157924,,1827,1
1620713889928,157944,,1851,1
1620713890429,157965,,1873,1
1620713890429,157985,,1966,1
1620713890429,158005,,2019,1
1620713890429,158026,,1929,1
1620713890429,158046,,1775,1
1620713890429,158066,,1674,1
1620713890429,158086,,1614,1
1620713890429,158106,,1577,1
1620713890429,158126,,1579,1
1620713890429,158146,,1634,1
1620713890429,158166,,1803,1
1620713890429,158186,,2029,1
1620713890429,158206,,2239,1
1620713890429,158226,,2396,1
1620713890429,158247,,2448,1
1620713890429,158267,,2399,1
1620713890429,158287,,2303,1
1620713890429,158307,,2143,1
1620713890429,158327,,1982,1
1620713890429,158347,,1840,1
1620713890429,158367,,1729,1
1620713890429,158387,,1710,1
1620713890429,158407,,1679,1
1620713890429,158427,,1683,1
1620713890429,158447,,1722,1
1620713890932,158467,,1776,1
1620713890932,158487,,1924,1
1620713890932,158507,,2042,1
1620713890932,158527,,1999,1
1620713890932,158547,,1867,1
1620713890932,158567,,1733,1
1620713890932,158587,,1707,1
1620713890932,158607,,1652,1
1620713890932,158627,,1625,1
1620713890932,158647,,1609,1
1620713890932,158667,,1606,1
1620713890932,158688,,1710,1
1620713890932,158708,,1808,1
1620713890932,158728,,1955,1
1620713890932,158748,,2155,1
1620713890932,158768,,2326,1
1620713890932,158788,,2467,1
1620713890932,158808,,2462,1
1620713890932,158828,,2365,1
1620713890932,158848,,2209,1
1620713890932,158868,,2059,1
1620713890932,158888,,1925,1
1620713890932,158909,,1810,1
1620713890932,158929,,1727,1
1620713890932,158949,,1685,1
1620713891435,158969,,1680,1
1620713891435,158989,,1755,1
1620713891435,159009,,1851,1
1620713891435,159029,,1827,1
1620713891435,159049,,1769,1
1620713891435,159069,,1741,1
1620713891435,159089,,1746,1
1620713891435,159109,,1758,1
1620713891435,159130,,1755,1
1620713891435,159150,,1751,1
1620713891435,159170,,1747,1
1620713891435,159190,,1754,1
1620713891435,159210,,1761,1
1620713891435,159230,,1730,1
1620713891435,159250,,1729,1
1620713891435,159270,,1799,1
1620713891435,159290,,1911,1
1620713891435,159310,,2218,1
1620713891435,159330,,2496,1
1620713891435,159351,,2635,1
1620713891435,159371,,2659,1
1620713891435,159391,,2449,1
1620713891435,159411,,2247,1
1620713891435,159431,,2014,1
1620713891435,159451,,1825,1
1620713892006,159471,,1717,1
1620713892006,159491,,1757,1
1620713892006,159511,,1793,1
1620713892006,159531,,1813,1
1620713892006,159551,,1830,1
1620713892006,159572,,1843,1
1620713892006,159592,,1854,1
1620713892006,159612,,1861,1
1620713892006,159632,,1857,1
1620713892006,159652,,1872,1
1620713892006,159672,,1776,1
1620713892006,159692,,1616,1
1620713892006,159712,,1588,1
1620713892006,159732,,1558,1
1620713892006,159752,,1563,1
1620713892006,159772,,1586,1
1620713892006,159793,,1623,1
1620713892006,159813,,1728,1
1620713892006,159833,,1835,1
1620713892006,159853,,1997,1
1620713892006,159873,,2196,1
1620713892006,159893,,2371,1
1620713892006,159913,,2495,1
1620713892006,159933,,2493,1
1620713892006,159953,,2387,1
1620713892457,159973,,2224,1
1620713892457,159993,,2201,1
1620713892457,160014,,2090,1
1620713892457,160034,,1972,1
1620713892457,160054,,1755,1
1620713892457,160074,,1600,1
1620713892457,160094,,1531,1
1620713892457,160114,,1574,1
1620713892457,160134,,1650,1
1620713892457,160154,,1718,1
1620713892457,160174,,1776,1
1620713892457,160194,,1817,1
1620713892457,160214,,1842,1
1620713892457,160235,,1850,1
1620713892457,160255,,1814,1
1620713892457,160275,,1776,1
1620713892457,160295,,1746,1
1620713892457,160315,,1817,1
1620713892457,160335,,1851,1
1620713892457,160355,,1837,1
1620713892457,160375,,1748,1
1620713892457,160395,,1773,1
1620713892457,160415,,1885,1
1620713892457,160435,,2143,1
1620713892457,160456,,2286,1
1620713892937,160477,,2368,1
1620713892937,160497,,2448,1
1620713892937,160517,,2415,1
1620713892937,160537,,2270,1
1620713892937,160557,,1998,1
1620713892937,160577,,1776,1
1620713892937,160597,,1626,1
1620713892937,160617,,1534,1
1620713892937,160637,,1596,1
1620713892937,160657,,1643,1
1620713892937,160678,,1707,1
1620713892937,160698,,1769,1
1620713892937,160718,,1789,1
1620713892937,160738,,1879,1
1620713892937,160758,,1867,1
1620713892937,160778,,1840,1
1620713892937,160798,,1805,1
1620713892937,160818,,1755,1
1620713892937,160838,,1745,1
1620713892937,160858,,1706,1
1620713892937,160878,,1675,1
1620713892937,160899,,1666,1
1620713892937,160919,,1702,1
1620713892937,160939,,1872,1
1620713892937,160959,,2061,1
1620713893448,160979,,2224,1
1620713893448,160999,,2448,1
1620713893448,161019,,2583,1
1620713893448,161039,,2496,1
1620713893448,161059,,2268,1
1620713893448,161079,,2037,1
1620713893448,161099,,1847,1
1620713893448,161120,,1706,1
1620713893448,161140,,1651,1
1620713893448,161160,,1619,1
1620713893448,161180,,1626,1
1620713893448,161200,,1664,1
1620713893448,161220,,1712,1
1620713893448,161240,,1795,1
1620713893448,161260,,1847,1
1620713893448,161280,,1847,1
1620713893448,161300,,1837,1
1620713893448,161320,,1810,1
1620713893448,161341,,1797,1
1620713893448,161361,,1791,1
1620713893448,161381,,1743,1
1620713893448,161401,,1711,1
1620713893448,161421,,1693,1
1620713893448,161441,,1690,1
1620713893448,161461,,1747,1
1620713899744,167295,,2182,1
1620713899744,167316,,2062,1
1620713899744,167336,,1939,1
1620713899744,167356,,1840,1
1620713899744,167376,,1745,1
1620713899744,167396,,1761,1
1620713899744,167416,,1753,1
1620713899744,167436,,1753,1
1620713899744,167456,,1779,1
1620713899744,167476,,1782,1
1620713899744,167496,,1882,1
1620713900055,167516,,1877,1
1620713900055,167537,,1954,1
1620713900055,167557,,2012,1
1620713900055,167577,,1883,1
1620713900055,167597,,1795,1
1620713900055,167617,,1687,1
1620713900055,167637,,1627,1
1620713900055,167657,,1605,1
1620713900055,167677,,1614,1
1620713900055,167697,,1706,1
1620713900055,167717,,1809,1
1620713900055,167737,,1955,1
1620713900055,167758,,2116,1
1620713900055,167778,,2240,0
1620713900055,167798,,2321,0
1620713900055,167818,,2309,0
1620713900055,167838,,2224,0
1620713900055,167858,,2113,0
1620713900055,167878,,1990,0
1620713900055,167898,,1903,0
1620713900055,167918,,1815,0
1620713900055,167938,,1756,0
1620713900055,167958,,1724,0
1620713900055,167979,,1719,0
1620713900055,167999,,1760,0
1620713900483,168020,,1811,0
1620713900483,168040,,1932,0
1620713900483,168060,,2015,0
1620713900483,168080,,1979,0
1620713900483,168100,,1862,0
1620713900483,168120,,1777,0
1620713900483,168140,,1701,0
1620713900483,168160,,1661,0
1620713900483,168180,,1655,0
1620713900483,168201,,1661,0
1620713900483,168221,,1723,0
1620713900483,168241,,1728,0
1620713900483,168261,,1776,0
1620713900483,168281,,1869,0
1620713900483,168301,,2000,0
1620713900483,168321,,2192,0
1620713900483,168341,,2277,0
1620713900483,168361,,2304,0
1620713900483,168381,,2258,0
1620713900483,168401,,2160,0
1620713900483,168422,,2097,0
1620713900483,168442,,1971,0
1620713900483,168462,,1866,0
1620713900483,168482,,1781,0
1620713900483,168502,,1719,0
1620713900985,168522,,1765,0
1620713900985,168542,,1871,0
1620713900985,168562,,1973,0
1620713900985,168582,,1937,0
1620713900985,168602,,1823,0
1620713900985,168622,,1808,0
1620713900985,168643,,1763,0
1620713900985,168663,,1726,0
1620713900985,168683,,1712,0
1620713900985,168703,,1681,0
1620713900985,168723,,1739,0
1620713900985,168743,,1743,0
1620713900985,168763,,1744,0
1620713900985,168783,,1744,0
1620713900985,168803,,1740,0
1620713900985,168823,,1808,0
1620713900985,168843,,1910,0
1620713900985,168864,,2040,0
1620713900985,168884,,2181,0
1620713900985,168904,,2267,0
1620713900985,168924,,2309,0
1620713900985,168944,,2263,0
1620713900985,168964,,2160,0
1620713900985,168984,,2032,0
1620713900985,169004,,1920,0
1620713901489,169025,,1856,0
1620713901489,169045,,1887,0
1620713901489,169065,,1939,0
1620713901489,169086,,1875,0
1620713901489,169106,,1776,0
1620713901489,169126,,1746,0
1620713901489,169146,,1750,0
1620713901489,169166,,1759,0
1620713901489,169186,,1774,0
1620713901489,169206,,1783,0
1620713901489,169226,,1801,0
1620713901489,169246,,1823,0
1620713901489,169266,,1801,0
1620713901489,169286,,1784,0
1620713901489,169307,,1766,0
1620713901489,169327,,1766,0
1620713901489,169347,,1771,0
1620713901489,169367,,1759,0
1620713901489,169387,,1803,0
1620713901489,169407,,1908,0
1620713901489,169427,,2041,0
1620713901489,169447,,2220,0
1620713901489,169467,,2294,0
1620713901489,169487,,2299,0
1620713901489,169507,,2238,0
1620713902077,169527,,2152,0
1620713902077,169547,,2145,0
1620713902077,169567,,2105,0
1620713902077,169587,,1971,0
1620713902077,169607,,1790,0
1620713902077,169627,,1631,0
1620713902077,169647,,1680,0
1620713902077,169667,,1693,0
1620713902077,169687,,1712,0
1620713902077,169707,,1754,0
1620713902077,169727,,1773,0
1620713902077,169748,,1854,0
1620713902077,169768,,1862,0
1620713902077,169788,,1851,0
1620713902077,169808,,1831,0
1620713902077,169828,,1795,0
1620713902077,169848,,1789,0
1620713902077,169868,,1869,0
1620713902077,169888,,1817,0
1620713902077,169908,,1788,0
1620713902077,169928,,1789,0
1620713902077,169948,,1863,0
1620713902077,169969,,1981,0
1620713902077,169989,,2128,0
1620713902077,170009,,2262,0
1620713902515,170029,,2342,0
1620713902515,170049,,2449,0
1620713902515,170069,,2479,0
1620713902515,170089,,2321,0
1620713902515,170109,,2096,0
1620713902515,170129,,1907,0
1620713902515,170149,,1804,0
1620713902515,170169,,1744,0
1620713902515,170190,,1719,0
1620713902515,170210,,1738,0
1620713902515,170230,,1793,0
1620713902515,170250,,1870,0
1620713902515,170270,,1936,0
1620713902515,170290,,1963,0
1620713902515,170310,,1964,0
1620713902515,170330,,1950,0
1620713902515,170350,,1936,0
1620713902515,170370,,1936,0
1620713902515,170390,,1903,0
1620713902515,170411,,1872,0
1620713902515,170431,,1840,0
1620713902515,170451,,1791,0
1620713902515,170471,,1899,0
1620713902515,170491,,1936,0
1620713902515,170511,,2036,0
1620713902994,170532,,2228,0
1620713902994,170552,,2496,0
1620713902994,170572,,2703,0
1620713902994,170592,,2701,0
1620713902994,170612,,2523,0
1620713902994,170633,,2339,0
1620713902994,170653,,2152,0
1620713902994,170673,,2071,0
1620713902994,170693,,1958,0
1620713902994,170713,,1888,0
1620713902994,170733,,1857,0
1620713902994,170753,,1825,0
1620713902994,170773,,1913,0
1620713902994,170793,,1953,0
1620713902994,170813,,1990,0
1620713902994,170833,,2005,0
1620713902994,170854,,1984,0
1620713902994,170874,,2021,0
1620713902994,170894,,1984,0
1620713902994,170914,,1937,0
1620713902994,170934,,1901,0
1620713902994,170954,,1854,0
1620713902994,170974,,1872,0
1620713902994,170994,,1854,0
1620713902994,171014,,1839,1
1620713903504,171035,,1840,1
1620713903504,171055,,2063,1
1620713903504,171076,,2288,1
1620713903504,171096,,2467,1
1620713903504,171116,,2581,1
1620713903504,171136,,2484,1
1620713903504,171156,,2349,1
1620713903504,171176,,2237,1
1620713903504,171196,,2117,1
1620713903504,171216,,1999,1
1620713903504,171236,,1902,1
1620713903504,171256,,1826,1
1620713903504,171276,,1805,1
1620713903504,171297,,1805,1
1620713903504,171317,,1798,1
1620713903504,171337,,1822,1
1620713903504,171357,,1858,1
1620713903504,171377,,1904,1
1620713903504,171397,,1933,1
1620713903504,171417,,1914,1
1620713903504,171437,,1872,1
1620713903504,171457,,1794,1
1620713903504,171477,,1687,1
1620713903504,171497,,1636,1
1620713903504,171518,,1636,1
1620713904003,171539,,1747,1
1620713904003,171559,,2013,1
1620713904003,171579,,2292,1
1620713904003,171599,,2459,1
1620713904003,171619,,2624,1
1620713904003,171639,,2911,1
1620713904003,171659,,3342,1
1620713904003,171679,,3955,1
1620713904003,171699,,3955,1
1620713904003,171719,,3958,1
1620713904003,171740,,3962,1
1620713904003,171760,,3965,1
1620713904003,171780,,3963,1
1620713904003,171800,,3963,1
1620713904003,171820,,3963,1
1620713904003,171840,,3966,1
1620713904003,171860,,3963,1
1620713904003,171880,,3958,1
1620713904003,171900,,3965,1
1620713904003,171920,,3968,1
1620713904003,171940,,3967,1
1620713904003,171961,,3213,1
1620713904003,171981,,2688,0
1620713904003,172001,,2336,0
1620713904003,172021,,1950,0
1620713904503,172042,,1502,0
1620713904503,172062,,1247,0
1620713904503,172082,,970,0
1620713904503,172102,,592,0
1620713904503,172122,,180,0
1620713904503,172142,,0,0
1620713904503,172162,,0,0
1620713904503,172183,,16,0
1620713904503,172203,,425,0
1620713904503,172223,,896,0
1620713904503,172243,,1346,0
1620713904503,172263,,1682,0
1620713904503,172283,,1872,0
1620713904503,172303,,1987,0
1620713904503,172323,,1967,0
1620713904503,172343,,1879,0
1620713904503,172363,,1822,0
1620713904503,172383,,1840,0
1620713904503,172404,,1974,0
1620713904503,172424,,2183,0
1620713904503,172444,,2415,0
1620713904503,172464,,2672,0
1620713904503,172484,,2913,0
1620713904503,172504,,3152,0
1620713904503,172524,,3393,0
1620713905006,172544,,3579,0
