localTime,remoteTime,label,bvp,signalOK
1620713801527,125630,,3239,0
1620713801527,125650,,2648,0
1620713801527,125670,,2169,0
1620713801527,125690,,1830,0
1620713801527,125710,,1666,0
1620713801527,125730,,1634,0
1620713801527,125750,,1818,0
1620713801527,125771,,2019,0
1620713801527,125791,,2198,0
1620713801527,125811,,2355,0
1620713801527,125831,,2432,0
1620713801527,125851,,2559,0
1620713801527,125871,,2542,0
1620713801527,125891,,2422,1
1620713801527,125911,,2255,1
1620713801527,125931,,2031,1
1620713801527,125952,,1883,1
1620713801527,125972,,1696,1
1620713801527,125993,,1516,1
1620713802021,126013,,1424,1
1620713802021,126033,,1683,1
1620713802021,126053,,2170,1
1620713802021,126073,,2798,1
1620713802021,126093,,3626,0
1620713802021,126113,,4019,0
1620713802021,126133,,4013,0
1620713802021,126153,,4021,0
1620713802021,126173,,4023,0
1620713802021,126193,,4018,0
1620713802021,126214,,4026,0
1620713802021,126234,,4021,0
1620713802021,126254,,4016,0
1620713802021,126274,,4019,0
1620713802021,126294,,4018,0
1620713802021,126314,,4018,0
1620713802021,126334,,3329,0
1620713802021,126354,,2909,0
1620713802021,126374,,2768,0
1620713802021,126394,,2781,0
1620713802021,126414,,2709,0
1620713802021,126435,,2619,0
1620713802021,126455,,2490,0
1620713802021,126475,,2239,0
1620713802021,126495,,1763,0
1620713802530,126515,,1152,0
1620713802530,126535,,605,0
1620713802530,126555,,209,0
1620713802530,126575,,0,0
1620713802530,126595,,0,0
1620713802530,126615,,0,0
1620713802530,126635,,0,0
1620713802530,126656,,0,0
1620713802530,126676,,0,0
1620713802530,126696,,0,0
1620713802530,126716,,0,0
1620713802530,126736,,0,0
1620713802530,126756,,0,0
1620713802530,126776,,0,0
1620713802530,126796,,0,0
1620713802530,126816,,1073,0
1620713802530,126836,,2207,0
1620713802530,126856,,3215,0
1620713802530,126877,,4023,0
1620713802530,126897,,4016,0
1620713802530,126917,,3579,0
1620713802530,126937,,3039,0
1620713802530,126957,,2532,0
1620713802530,126977,,2106,0
1620713802530,126997,,1789,0
1620713803031,127017,,1595,0
1620713803031,127037,,1599,0
1620713803031,127057,,1507,0
1620713803031,127077,,1376,0
1620713803031,127098,,1169,0
1620713803031,127118,,1088,0
1620713803031,127138,,1110,0
1620713803031,127158,,1168,0
1620713803031,127178,,1281,0
1620713803031,127198,,1375,0
1620713803031,127218,,1440,0
1620713803031,127238,,1473,0
1620713803031,127258,,1502,0
1620713803031,127278,,1616,0
1620713803031,127298,,1902,0
1620713803031,127319,,2354,0
1620713803031,127339,,2849,0
1620713803031,127359,,3395,0
1620713803031,127379,,3865,0
1620713803031,127399,,4010,0
1620713803031,127419,,3664,0
1620713803031,127439,,3141,0
1620713803031,127459,,2661,0
1620713803031,127479,,2114,0
1620713803031,127499,,1648,0
1620713803535,127519,,1175,0
1620713803535,127540,,1008,0
1620713803535,127560,,1014,0
1620713803535,127580,,1072,0
1620713803535,127600,,1273,0
1620713803535,127620,,1651,0
1620713803535,127640,,2190,0
1620713803535,127660,,2726,0
1620713803535,127680,,3118,0
1620713803535,127700,,3371,0
1620713803535,127720,,3250,0
1620713803535,127740,,2910,0
1620713803535,127761,,2431,0
1620713803535,127781,,1944,0
1620713803535,127801,,1569,0
1620713803535,127821,,1225,0
1620713803535,127841,,1011,0
1620713803535,127861,,936,0
1620713803535,127881,,959,0
1620713803535,127901,,1165,0
1620713803535,127921,,1408,0
1620713803535,127941,,1808,0
1620713803535,127961,,2411,0
1620713803535,127982,,3135,0
1620713803535,128002,,4016,0
1620713804046,128023,,4017,0
1620713804046,128043,,4016,0
1620713804046,128063,,4019,0
1620713804046,128083,,4011,0
1620713804046,128103,,4022,0
1620713804046,128123,,4016,0
1620713804046,128143,,4019,0
1620713804046,128163,,4023,0
1620713804046,128183,,4016,0
1620713804046,128204,,4022,0
1620713804046,128224,,3188,0
1620713804046,128244,,2671,0
1620713804046,128264,,2417,0
1620713804046,128284,,2433,0
1620713804046,128304,,2766,0
1620713804046,128324,,3253,0
1620713804046,128344,,3558,0
1620713804046,128364,,3845,0
1620713804046,128384,,3839,0
1620713804046,128404,,3440,0
1620713804046,128425,,2826,0
1620713804046,128445,,2253,0
1620713804046,128465,,1733,0
1620713804046,128485,,1315,0
1620713804046,128505,,1079,0
1620713804535,128525,,927,0
1620713804535,128545,,990,0
1620713804535,128565,,1142,0
1620713804535,128585,,1440,0
1620713804535,128605,,1643,0
1620713804535,128625,,1954,0
1620713804535,128646,,2172,0
1620713804535,128666,,2252,0
1620713804535,128686,,2208,0
1620713804535,128706,,2039,0
1620713804535,128726,,1821,0
1620713804535,128746,,1518,0
1620713804535,128766,,1186,0
1620713804535,128786,,775,0
1620713804535,128806,,331,0
1620713804535,128826,,51,0
1620713804535,128846,,0,0
1620713804535,128867,,0,0
1620713804535,128887,,0,0
1620713804535,128907,,0,0
1620713804535,128927,,0,0
1620713804535,128947,,0,0
1620713804535,128967,,0,0
1620713804535,128987,,346,0
1620713804535,129007,,646,0
1620713805038,129028,,873,0
1620713805038,129048,,981,0
1620713805038,129068,,1028,0
1620713805038,129089,,869,0
1620713805038,129109,,547,0
1620713805038,129129,,332,0
1620713805038,129149,,128,0
1620713805038,129169,,14,0
1620713805038,129189,,15,0
1620713805038,129209,,60,0
1620713805038,129229,,255,0
1620713805038,129249,,466,0
1620713805038,129269,,743,0
1620713805038,129289,,987,0
1620713805038,129310,,1173,0
1620713805038,129330,,1358,1
1620713805038,129350,,1453,1
1620713805038,129370,,1488,1
1620713805038,129390,,1559,1
1620713805038,129410,,1710,1
1620713805038,129430,,1968,1
1620713805038,129450,,2209,1
1620713805038,129470,,2293,1
1620713805038,129490,,2213,1
1620713805038,129510,,2006,1
1620713805549,129531,,1760,1
1620713805549,129551,,1706,1
1620713805549,129571,,1763,1
1620713805549,129591,,1767,1
1620713805549,129611,,1693,1
1620713805549,129631,,1662,1
1620713805549,129651,,1621,1
1620713805549,129671,,1552,1
1620713805549,129691,,1482,1
1620713805549,129711,,1456,1
1620713805549,129731,,1474,1
1620713805549,129752,,1493,1
1620713805549,129772,,1418,1
1620713805549,129792,,1325,1
1620713805549,129812,,1374,1
1620713805549,129832,,1682,1
1620713805549,129852,,2213,1
1620713805549,129872,,2812,1
1620713805549,129892,,3374,0
1620713805549,129912,,4005,0
1620713805549,129932,,4016,0
1620713805549,129952,,4014,0
1620713805549,129973,,4015,0
1620713805549,129993,,2832,0
1620713805549,130013,,1796,0
1620713806049,130033,,845,0
1620713806049,130053,,232,0
1620713806049,130073,,0,0
1620713806049,130093,,0,0
1620713806049,130113,,0,0
1620713806049,130133,,19,0
1620713806049,130153,,462,0
1620713806049,130173,,859,0
1620713806049,130194,,1212,0
1620713806049,130214,,1435,0
1620713806049,130234,,1520,0
1620713806049,130254,,1622,0
1620713806049,130274,,1588,0
1620713806049,130294,,1492,0
1620713806049,130314,,1392,0
1620713806049,130334,,1279,0
1620713806049,130354,,1278,0
1620713806049,130374,,1253,0
1620713806049,130394,,1263,0
1620713806049,130415,,1330,0
1620713806049,130435,,1503,0
1620713806049,130455,,1841,0
1620713806049,130475,,2235,0
1620713806049,130495,,2592,0
1620713806049,130515,,2864,0
1620713806555,130536,,3054,0
1620713806555,130556,,3210,0
1620713806555,130576,,3248,0
1620713806555,130596,,3008,0
1620713806555,130616,,2666,0
1620713806555,130637,,2347,0
1620713806555,130657,,2111,0
1620713806555,130677,,1907,0
1620713806555,130697,,1761,0
1620713806555,130717,,1699,0
1620713806555,130737,,1712,0
1620713806555,130757,,1772,0
1620713806555,130777,,1884,0
1620713806555,130797,,2000,0
1620713806555,130817,,2079,0
1620713806555,130837,,2110,0
1620713806555,130858,,2111,0
1620713806555,130878,,2074,0
1620713806555,130898,,1920,1
1620713806555,130918,,1680,1
1620713806555,130938,,1407,1
1620713806555,130958,,1169,1
1620713806555,130978,,1043,1
1620713806555,130998,,951,1
1620713806555,131018,,933,1
1620713807056,131038,,979,1
1620713807056,131058,,1267,1
1620713807056,131079,,1709,1
1620713807056,131099,,2107,1
1620713807056,131119,,2418,1
1620713807056,131139,,2739,1
1620713807056,131159,,2989,1
1620713807056,131179,,3178,0
1620713807056,131199,,3141,0
1620713807056,131219,,2960,0
1620713807056,131239,,2691,0
1620713807056,131259,,2339,0
1620713807056,131279,,2112,0
1620713807056,131300,,1866,0
1620713807056,131320,,1661,0
1620713807056,131340,,1558,0
1620713807056,131360,,1499,0
1620713807056,131380,,1582,0
1620713807056,131400,,1585,0
1620713807056,131420,,1554,0
1620713807056,131440,,1520,0
1620713807056,131460,,1489,0
1620713807056,131480,,1580,0
1620713807056,131500,,1616,0
1620713807056,131521,,1622,0
1620713807558,131541,,1596,0
1620713807558,131561,,1699,0
1620713807558,131581,,1821,0
1620713807558,131601,,1789,0
1620713807558,131621,,1622,0
1620713807558,131641,,1501,0
1620713807558,131661,,1463,0
1620713807558,131681,,1505,0
1620713807558,131701,,1648,0
1620713807558,131721,,1863,0
1620713807558,131742,,2209,0
1620713807558,131762,,2639,0
1620713807558,131782,,3098,0
1620713807558,131802,,3526,0
1620713807558,131822,,3750,0
1620713807558,131842,,3602,0
1620713807558,131862,,3328,0
1620713807558,131882,,3037,0
1620713807558,131902,,2694,0
1620713807558,131922,,2325,0
1620713807558,131942,,1954,0
1620713807558,131963,,1553,0
1620713807558,131983,,1271,0
1620713807558,132003,,1093,0
1620713807558,132023,,1019,0
1620713808064,132043,,1081,0
1620713808064,132063,,1360,0
1620713808064,132083,,1712,0
1620713808064,132103,,1931,0
1620713808064,132123,,1955,0
1620713808064,132143,,1878,0
1620713808064,132163,,1750,0
1620713808064,132184,,1570,1
1620713808064,132204,,1441,1
1620713808064,132224,,1308,1
1620713808064,132244,,1262,1
1620713808064,132264,,1323,1
1620713808064,132284,,1425,1
1620713808064,132304,,1623,1
1620713808064,132324,,1735,1
1620713808064,132344,,1791,1
1620713808064,132364,,1862,1
1620713808064,132384,,1982,1
1620713808064,132404,,2290,1
1620713808064,132424,,2448,1
1620713808064,132444,,2448,1
1620713808064,132464,,2378,1
1620713808064,132484,,2243,1
1620713808064,132504,,2162,1
1620713808064,132524,,1985,1
1620713808557,132544,,1779,1
1620713808557,132564,,1705,1
1620713808557,132584,,1616,1
1620713808557,132604,,1459,1
1620713808557,132625,,1175,1
1620713808557,132645,,915,1
1620713808557,132665,,730,1
1620713808557,132685,,594,1
1620713808557,132705,,574,1
1620713808557,132725,,605,1
1620713808557,132745,,687,1
1620713808557,132765,,833,1
1620713808557,132785,,1033,1
1620713808557,132805,,1210,1
1620713808557,132825,,1337,1
1620713808557,132846,,1411,1
1620713808557,132866,,1443,1
1620713808557,132886,,1475,1
1620713808557,132906,,1517,1
1620713808557,132926,,1535,1
1620713808557,132946,,1521,1
1620713808557,132966,,1494,1
1620713808557,132986,,1488,1
1620713808557,133006,,1590,1
1620713808557,133026,,1883,1
1620713809056,133047,,2284,1
1620713809056,133068,,2850,1
1620713809056,133088,,3307,0
1620713809056,133108,,3520,0
1620713809056,133128,,3440,0
1620713809056,133148,,3184,0
1620713809056,133168,,2861,0
1620713809056,133188,,2527,0
1620713809056,133208,,2266,0
1620713809056,133228,,2087,0
1620713809056,133248,,1933,0
1620713809056,133268,,1835,0
1620713809056,133289,,1762,0
1620713809056,133309,,1711,0
1620713809056,133329,,1811,0
1620713809056,133349,,1856,0
1620713809056,133369,,1885,0
1620713809056,133389,,1893,0
1620713809056,133409,,1871,0
1620713809056,133429,,1866,0
1620713809056,133449,,1706,0
1620713809056,133469,,1435,0
1620713809056,133489,,1129,0
1620713809056,133510,,837,0
1620713809056,133530,,781,0
1620713809564,133550,,776,0
1620713809564,133570,,950,0
1620713809564,133590,,1183,0
1620713809564,133610,,1264,0
1620713809564,133630,,1297,0
1620713809564,133650,,1359,0
1620713809564,133670,,1552,0
1620713809564,133690,,1867,0
1620713809564,133710,,2323,0
1620713809564,133731,,2810,0
1620713809564,133751,,3031,0
1620713809564,133771,,2963,0
1620713809564,133791,,2675,0
1620713809564,133811,,2234,0
1620713809564,133831,,1806,0
1620713809564,133851,,1399,0
1620713809564,133871,,1088,0
1620713809564,133891,,870,0
1620713809564,133911,,784,0
1620713809564,133931,,803,0
1620713809564,133952,,903,0
1620713809564,133972,,990,0
1620713809564,133992,,1104,0
1620713809564,134012,,1217,0
1620713809564,134032,,1325,0
1620713810064,134053,,1442,0
1620713810064,134073,,1598,0
1620713810064,134093,,1718,1
1620713810064,134113,,1663,1
1620713810064,134133,,1515,1
1620713810064,134153,,1424,1
1620713810064,134174,,1344,1
1620713810064,134194,,1314,1
1620713810064,134214,,1329,1
1620713810064,134234,,1369,1
1620713810064,134254,,1457,1
1620713810064,134274,,1505,1
1620713810064,134294,,1550,1
1620713810064,134314,,1639,1
1620713810064,134334,,1793,1
1620713810064,134354,,2039,1
1620713810064,134374,,2256,1
1620713810064,134395,,2385,1
1620713810064,134415,,2399,1
1620713810064,134435,,2288,1
1620713810064,134455,,2178,1
1620713810064,134475,,1971,1
1620713810064,134495,,1801,1
1620713810064,134515,,1623,1
1620713810064,134535,,1483,1
1620713810579,134555,,1442,1
1620713810579,134575,,1529,1
1620713810579,134595,,1645,1
1620713810579,134616,,1647,1
1620713810579,134636,,1561,1
1620713810579,134656,,1606,1
1620713810579,134676,,1622,1
1620713810579,134696,,1661,1
1620713810579,134716,,1697,1
1620713810579,134736,,1715,1
1620713810579,134756,,1782,1
1620713810579,134776,,1789,1
1620713810579,134796,,1762,1
1620713810579,134816,,1735,1
1620713810579,134837,,1691,1
1620713810579,134857,,1709,1
1620713810579,134877,,1685,1
1620713810579,134897,,1675,1
1620713810579,134917,,1693,1
1620713810579,134937,,1767,1
1620713810579,134957,,1953,1
1620713810579,134977,,2198,1
1620713810579,134997,,2414,1
1620713810579,135017,,2586,1
1620713810579,135037,,2623,1
1620713811066,135057,,2530,1
1620713811066,135077,,2479,1
1620713811066,135097,,2370,0
1620713811066,135117,,2135,0
1620713811066,135137,,1824,0
1620713811066,135157,,1594,0
1620713811066,135177,,1474,0
1620713811066,135197,,1409,0
1620713811066,135217,,1419,0
1620713811066,135237,,1495,0
1620713811066,135257,,1613,0
1620713811066,135278,,1770,0
1620713811066,135298,,1853,0
1620713811066,135318,,1904,0
1620713811066,135338,,1931,0
1620713811066,135358,,1909,0
1620713811066,135378,,1913,0
1620713811066,135398,,1845,0
1620713811066,135418,,1783,0
1620713811066,135438,,1727,0
1620713811066,135458,,1666,0
1620713811066,135478,,1698,0
1620713811066,135499,,1679,0
1620713811066,135519,,1678,0
1620713811066,135539,,1718,0
1620713811572,135560,,1867,0
1620713811572,135580,,2215,0
1620713811572,135600,,2619,0
1620713811572,135620,,2849,0
1620713811572,135640,,2893,0
1620713811572,135660,,2781,0
1620713811572,135680,,2685,0
1620713811572,135700,,2438,0
1620713811572,135721,,2161,0
1620713811572,135741,,1943,0
1620713811572,135761,,1761,0
1620713811572,135781,,1699,0
1620713811572,135801,,1622,0
1620713811572,135821,,1574,0
1620713811572,135841,,1569,0
1620713811572,135861,,1589,0
1620713811572,135881,,1680,0
1620713811572,135901,,1733,0
1620713811572,135921,,1753,0
1620713811572,135942,,1735,0
1620713811572,135962,,1685,0
1620713811572,135982,,1616,0
1620713811572,136002,,1510,0
1620713811572,136022,,1397,0
1620713811572,136042,,1326,0
1620713812077,136062,,1290,0
1620713812077,136082,,1426,0
1620713812077,136102,,1597,0
1620713812077,136122,,1616,0
1620713812077,136142,,1579,0
1620713812077,136163,,1562,0
1620713812077,136183,,1621,0
1620713812077,136203,,1781,0
1620713812077,136223,,2039,0
1620713812077,136243,,2331,0
1620713812077,136263,,2555,0
1620713812077,136283,,2688,0
1620713812077,136303,,2691,0
1620713812077,136323,,2568,0
1620713812077,136343,,2373,0
1620713812077,136363,,2145,0
1620713812077,136384,,1941,0
1620713812077,136404,,1807,0
1620713812077,136424,,1689,0
1620713812077,136444,,1613,0
1620713812077,136464,,1577,0
1620713812077,136484,,1581,0
1620713812077,136504,,1665,0
1620713812077,136524,,1716,0
1620713812077,136544,,1767,0
1620713812584,136564,,1808,0
1620713812584,136584,,1959,0
1620713812584,136605,,2079,1
1620713812584,136625,,2000,1
1620713812584,136645,,1854,1
1620713812584,136665,,1707,1
1620713812584,136685,,1584,1
1620713812584,136705,,1585,1
1620713812584,136725,,1570,1
1620713812584,136745,,1579,1
1620713812584,136765,,1613,1
1620713812584,136785,,1632,1
1620713812584,136805,,1733,1
1620713812584,136826,,1795,1
1620713812584,136846,,1933,1
1620713812584,136866,,2148,1
1620713812584,136886,,2378,1
1620713812584,136906,,2650,1
1620713812584,136926,,2770,1
1620713812584,136946,,2741,1
1620713812584,136966,,2614,1
1620713812584,136986,,2430,1
1620713812584,137007,,2251,1
1620713812584,137027,,2077,1
1620713812584,137048,,1918,1
1620713813084,137068,,1825,1
1620713813084,137088,,1873,1
1620713813084,137108,,1931,1
1620713813084,137128,,1916,1
1620713813084,137148,,1815,1
1620713813084,137168,,1776,1
1620713813084,137188,,1787,1
1620713813084,137208,,1834,1
1620713813084,137228,,1879,1
1620713813084,137248,,1901,1
1620713813084,137269,,1904,1
1620713813084,137289,,1886,1
1620713813084,137309,,1859,1
1620713813084,137329,,1833,1
1620713813084,137349,,1786,1
1620713813084,137369,,1744,1
1620713813084,137389,,1715,1
1620713813084,137409,,1709,1
1620713813084,137429,,1725,1
1620713813084,137449,,1714,1
1620713813084,137469,,1743,1
1620713813084,137490,,1865,1
1620713813084,137510,,2095,1
1620713813084,137530,,2448,1
1620713813084,137550,,2762,1
1620713816601,140583,,1865,0
1620713816601,140603,,1993,0
1620713816601,140623,,2061,0
1620713816601,140643,,1974,0
1620713816601,140663,,1792,0
1620713816601,140683,,1617,0
1620713816601,140703,,1550,0
1620713816601,140723,,1489,0
1620713816601,140743,,1488,0
1620713816601,140763,,1514,0
1620713816601,140783,,1535,0
1620713816601,140804,,1657,0
1620713816601,140824,,1717,0
1620713816601,140844,,1851,0
1620713816601,140864,,2114,0
1620713816601,140884,,2410,0
1620713816601,140904,,2743,0
1620713816601,140924,,2960,0
1620713816601,140944,,2988,0
1620713816601,140964,,2874,0
1620713816601,140984,,2650,0
1620713816601,141004,,2470,0
1620713816601,141025,,2227,0
1620713816601,141045,,2021,0
1620713816601,141065,,1858,0
1620713817096,141086,,1722,0
1620713817096,141106,,1747,0
1620713817096,141126,,1783,0
1620713817096,141146,,1853,0
1620713817096,141166,,1847,0
1620713817096,141186,,1775,0
1620713817096,141206,,1803,0
1620713817096,141226,,1822,0
1620713817096,141247,,1842,0
1620713817096,141267,,1855,1
1620713817096,141287,,1850,1
1620713817096,141307,,1846,1
1620713817096,141327,,1807,1
1620713817096,141347,,1743,1
1620713817096,141367,,1680,1
1620713817096,141387,,1647,1
1620713817096,141407,,1648,1
1620713817096,141427,,1658,1
1620713817096,141447,,1645,1
1620713817096,141468,,1665,1
1620713817096,141488,,1770,1
1620713817096,141508,,2010,1
1620713817096,141528,,2354,1
1620713817096,141548,,2698,1
1620713817096,141568,,2929,0
1620713817613,141588,,3026,0
1620713817613,141608,,3082,0
1620713817613,141628,,2992,0
1620713817613,141648,,2695,0
1620713817613,141668,,2320,0
1620713817613,141689,,1986,0
1620713817613,141709,,1765,0
1620713817613,141729,,1641,0
1620713817613,141749,,1558,0
1620713817613,141769,,1510,0
1620713817613,141789,,1515,0
1620713817613,141809,,1555,0
1620713817613,141829,,1677,0
1620713817613,141849,,1746,0
1620713817613,141869,,1803,0
1620713817613,141889,,1818,0
1620713817613,141910,,1791,0
1620713817613,141930,,1821,0
1620713817613,141950,,1766,0
1620713817613,141970,,1698,0
1620713817613,141990,,1636,0
1620713817613,142010,,1557,0
1620713817613,142030,,1587,0
1620713817613,142050,,1573,0
1620713817613,142070,,1555,0
1620713818099,142090,,1552,0
1620713818099,142110,,1675,0
1620713818099,142131,,1776,0
1620713818099,142151,,1831,0
1620713818099,142171,,1925,0
1620713818099,142191,,2112,0
1620713818099,142211,,2403,0
1620713818099,142231,,2705,0
1620713818099,142251,,2813,0
1620713818099,142271,,2800,0
1620713818099,142291,,2704,0
1620713818099,142311,,2571,0
1620713818099,142331,,2382,0
1620713818099,142352,,2320,0
1620713818099,142372,,2249,0
1620713818099,142392,,2139,0
1620713818099,142412,,1989,0
1620713818099,142432,,1871,0
1620713818099,142452,,1627,0
1620713818099,142472,,1429,0
1620713818099,142492,,1363,0
1620713818099,142512,,1397,0
1620713818099,142532,,1505,0
1620713818099,142552,,1642,0
1620713818099,142573,,1741,1
1620713818614,142594,,1807,1
1620713818614,142614,,1919,1
1620713818614,142634,,2002,1
1620713818614,142654,,1889,1
1620713818614,142674,,1713,1
1620713818614,142694,,1591,1
1620713818614,142714,,1505,1
1620713818614,142734,,1474,1
1620713818614,142754,,1535,1
1620713818614,142774,,1552,1
1620713818614,142795,,1578,1
1620713818614,142815,,1595,1
1620713818614,142835,,1631,1
1620713818614,142855,,1707,1
1620713818614,142875,,1759,1
1620713818614,142895,,1877,1
1620713818614,142915,,2098,1
1620713818614,142935,,2380,1
1620713818614,142955,,2717,1
1620713818614,142975,,2875,1
1620713818614,142995,,2891,1
1620713818614,143016,,2761,1
1620713818614,143036,,2543,1
1620713818614,143056,,2379,1
1620713818614,143076,,2191,1
1620713819120,143097,,1987,1
1620713819120,143117,,1958,1
1620713819120,143137,,1927,1
1620713819120,143157,,1851,1
1620713819120,143177,,1675,1
1620713819120,143197,,1584,1
1620713819120,143217,,1565,1
1620713819120,143238,,1594,1
1620713819120,143258,,1728,1
1620713819120,143278,,1920,1
1620713819120,143298,,2047,1
1620713819120,143318,,1982,1
1620713819120,143338,,1839,1
1620713819120,143358,,1718,1
1620713819120,143378,,1733,1
1620713819120,143398,,1731,1
1620713819120,143418,,1702,1
1620713819120,143438,,1582,1
1620713819120,143459,,1489,1
1620713819120,143479,,1581,1
1620713819120,143499,,1680,1
1620713819120,143519,,1683,1
1620713819120,143539,,1607,1
1620713819120,143559,,1551,1
1620713819120,143579,,1667,1
1620713819609,143600,,1813,1
1620713819609,143620,,2009,1
1620713819609,143640,,2279,1
1620713819609,143660,,2587,1
1620713819609,143681,,2846,1
1620713819609,143701,,2829,1
1620713819609,143721,,2691,1
1620713819609,143741,,2512,1
1620713819609,143761,,2347,1
1620713819609,143781,,2192,1
1620713819609,143801,,2022,1
1620713819609,143821,,1904,1
1620713819609,143841,,1823,1
1620713819609,143861,,1762,1
1620713819609,143881,,1729,1
1620713819609,143902,,1678,1
1620713819609,143922,,1660,1
1620713819609,143942,,1677,1
1620713819609,143962,,1715,1
1620713819609,143982,,1787,1
1620713819609,144002,,1803,1
1620713819609,144022,,1803,1
1620713819609,144042,,1787,1
1620713819609,144062,,1759,1
1620713819609,144082,,1765,1
1620713820115,144102,,1706,1
1620713820115,144123,,1776,1
1620713820115,144143,,1840,1
1620713820115,144163,,1732,1
1620713820115,144183,,1649,1
1620713820115,144203,,1552,1
1620713820115,144223,,1501,1
1620713820115,144243,,1502,1
1620713820115,144263,,1508,1
1620713820115,144283,,1623,1
1620713820115,144303,,1663,1
1620713820115,144323,,1686,1
1620713820115,144344,,1699,1
1620713820115,144364,,1680,1
1620713820115,144384,,1762,1
1620713820115,144404,,1781,1
1620713820115,144424,,1853,1
1620713820115,144444,,2033,1
1620713820115,144464,,2267,1
1620713820115,144484,,2577,0
1620713820115,144504,,2752,0
1620713820115,144524,,2789,0
1620713820115,144544,,2707,0
1620713820115,144565,,2517,0
1620713820115,144585,,2378,0
1620713820619,144606,,2193,0
1620713820619,144626,,2144,0
1620713820619,144646,,2098,0
1620713820619,144666,,1947,0
1620713820619,144686,,1754,0
1620713820619,144706,,1612,0
1620713820619,144726,,1535,0
1620713820619,144746,,1547,0
1620713820619,144766,,1606,0
1620713820619,144787,,1719,0
1620713820619,144807,,1808,0
1620713820619,144827,,1862,0
1620713820619,144847,,1878,0
1620713820619,144867,,1861,0
1620713820619,144887,,1849,0
1620713820619,144907,,1821,0
1620713820619,144927,,1758,0
1620713820619,144947,,1707,0
1620713820619,144967,,1674,0
1620713820619,144987,,1660,0
1620713820619,145008,,1680,0
1620713820619,145028,,1683,0
1620713820619,145048,,1690,0
1620713820619,145068,,1712,0
1620713820619,145088,,1733,0
1620713821125,145108,,1771,0
1620713821125,145128,,1882,0
1620713821125,145148,,1968,0
1620713821125,145168,,1911,0
1620713821125,145188,,1779,0
1620713821125,145208,,1734,0
1620713821125,145229,,1683,0
1620713821125,145249,,1709,0
1620713821125,145269,,1822,0
1620713821125,145289,,2045,0
1620713821125,145309,,2377,0
1620713821125,145329,,2622,0
1620713821125,145349,,2725,0
1620713821125,145369,,2706,0
1620713821125,145389,,2559,0
1620713821125,145409,,2445,0
1620713821125,145429,,2255,0
1620713821125,145450,,2061,0
1620713821125,145470,,1902,0
1620713821125,145490,,1770,1
1620713821125,145510,,1754,1
1620713821125,145530,,1712,1
1620713821125,145550,,1711,1
1620713821125,145570,,1746,1
1620713821125,145590,,1791,1
1620713821630,145610,,1887,1
1620713821630,145630,,2042,1
1620713821630,145650,,2140,1
1620713821630,145671,,2093,1
1620713821630,145691,,1926,1
1620713821630,145711,,1801,1
1620713821630,145731,,1701,1
1620713821630,145751,,1625,1
1620713821630,145771,,1579,1
1620713821630,145791,,1559,1
1620713821630,145811,,1586,1
1620713821630,145831,,1616,1
1620713821630,145851,,1634,1
1620713821630,145871,,1648,1
1620713821630,145892,,1671,1
1620713821630,145912,,1713,1
1620713821630,145932,,1744,1
1620713821630,145952,,1747,1
1620713821630,145972,,1743,1
1620713821630,145992,,1739,1
1620713821630,146012,,1787,1
1620713821630,146032,,1919,1
1620713821630,146052,,2139,1
1620713821630,146072,,2372,1
1620713821630,146092,,2586,0
1620713822139,146112,,2698,0
1620713822139,146132,,2794,0
1620713822139,146152,,2751,0
1620713822139,146172,,2630,0
1620713822139,146192,,2314,0
1620713822139,146212,,2006,0
1620713822139,146232,,1855,0
1620713822139,146252,,1713,0
1620713822139,146272,,1631,0
1620713822139,146292,,1597,0
1620713822139,146312,,1582,0
1620713822139,146333,,1659,0
1620713822139,146353,,1709,0
1620713822139,146373,,1746,0
1620713822139,146393,,1787,0
1620713822139,146413,,1790,0
1620713822139,146433,,1857,0
1620713822139,146453,,1840,0
1620713822139,146473,,1807,0
1620713822139,146493,,1767,0
1620713822139,146513,,1706,0
1620713822139,146533,,1729,0
1620713822139,146554,,1705,0
1620713822139,146574,,1679,0
1620713822139,146594,,1664,0
1620713822625,146615,,1663,0
1620713822625,146635,,1767,0
1620713822625,146655,,1866,0
1620713822625,146675,,1858,0
1620713822625,146695,,1754,0
1620713822625,146715,,1678,0
1620713822625,146735,,1659,0
1620713822625,146755,,1648,0
1620713822625,146776,,1655,0
1620713822625,146796,,1677,0
1620713822625,146816,,1711,0
1620713822625,146836,,1810,0
1620713822625,146856,,1961,0
1620713822625,146876,,2192,0
1620713822625,146896,,2419,0
1620713822625,146916,,2589,0
1620713822625,146936,,2671,0
1620713822625,146956,,2624,0
1620713822625,146976,,2467,0
1620713822625,146997,,2262,0
1620713822625,147017,,2096,0
1620713822625,147037,,1965,0
1620713822625,147057,,1881,0
1620713822625,147077,,1802,0
1620713822625,147097,,1743,1
1620713823134,147118,,1715,1
1620713823134,147138,,1823,1
1620713823134,147158,,1945,1
1620713823134,147178,,1911,1
1620713823134,147198,,1831,1
1620713823134,147219,,1793,1
1620713823134,147239,,1793,1
1620713823134,147259,,1837,1
1620713823134,147279,,1840,1
1620713823134,147299,,1840,1
1620713823134,147319,,1819,1
1620713823134,147339,,1786,1
1620713823134,147359,,1802,1
1620713823134,147379,,1769,1
1620713823134,147399,,1727,1
1620713823134,147419,,1713,1
1620713823134,147440,,1681,1
1620713823134,147460,,1779,1
1620713823134,147480,,1789,1
1620713823134,147500,,1795,1
1620713823134,147520,,1799,1
1620713823134,147540,,1776,1
1620713823134,147560,,1840,1
1620713823134,147580,,1839,1
1620713823134,147600,,1842,1
1620713823631,147621,,1915,1
1620713823631,147641,,2171,1
1620713823631,147661,,2478,1
1620713823631,147681,,2639,1
1620713823631,147701,,2622,1
1620713823631,147721,,2527,1
1620713823631,147741,,2366,1
1620713823631,147761,,2231,1
1620713823631,147781,,2064,1
1620713823631,147801,,1917,1
1620713823631,147821,,1807,1
1620713823631,147841,,1747,1
1620713823631,147861,,1729,1
1620713823631,147882,,1712,1
1620713823631,147902,,1722,1
1620713823631,147922,,1765,1
1620713823631,147942,,1809,1
1620713823631,147962,,1888,1
1620713823631,147982,,1934,1
1620713823631,148002,,1936,1
1620713823631,148022,,1915,1
1620713823631,148042,,1876,1
1620713823631,148062,,1864,1
1620713823631,148082,,1840,1
1620713823631,148103,,1788,1
1620713824144,148124,,1750,1
1620713824144,148144,,1841,1
1620713824144,148164,,1936,1
1620713824144,148184,,1870,1
1620713824144,148204,,1744,1
1620713824144,148224,,1661,1
1620713824144,148244,,1635,1
1620713824144,148264,,1663,1
1620713824144,148284,,1714,1
1620713824144,148304,,1744,1
1620713824144,148325,,1789,1
1620713824144,148345,,1870,1
1620713824144,148365,,2034,1
1620713824144,148385,,2320,1
1620713824144,148405,,2543,1
1620713824144,148425,,2688,1
1620713824144,148445,,2719,1
1620713824144,148465,,2599,1
1620713824144,148485,,2534,1
1620713824144,148505,,2330,1
1620713824144,148525,,2153,1
1620713824144,148546,,1994,1
1620713824144,148566,,1887,1
1620713824144,148586,,1883,1
1620713824144,148606,,1850,1
1620713824650,148627,,1836,1
1620713824650,148647,,1950,1
1620713824650,148667,,2053,1
1620713824650,148687,,2077,1
1620713824650,148707,,1974,1
1620713824650,148727,,1917,1
1620713824650,148747,,1889,1
1620713824650,148768,,1870,1
1620713824650,148788,,1961,1
1620713824650,148808,,1996,1
1620713824650,148828,,2015,1
1620713824650,148848,,2032,1
1620713824650,148868,,1993,1
1620713824650,148888,,2020,1
1620713824650,148908,,1984,1
1620713824650,148928,,1926,1
1620713824650,148948,,1885,1
1620713824650,148968,,1862,1
1620713824650,148989,,1872,1
1620713824650,149009,,1859,1
1620713824650,149029,,1853,1
1620713824650,149049,,1863,1
1620713824650,149069,,1985,1
1620713824650,149089,,2656,1
1620713824650,149109,,4019,1
1620713825139,149129,,4013,1
1620713825139,149149,,4015,1
1620713825139,149169,,4018,1
1620713825139,149189,,4016,1
1620713825139,149210,,4016,1
1620713825139,149230,,4017,1
1620713825139,149250,,4016,1
1620713825139,149270,,4016,1
1620713825139,149290,,4012,1
1620713825139,149310,,4016,1
1620713825139,149330,,4015,1
1620713825139,149350,,4013,1
1620713825139,149370,,4013,1
1620713825139,149390,,4015,1
1620713825139,149410,,4010,1
1620713825139,149431,,4015,1
1620713825139,149451,,4011,1
1620713825139,149471,,4013,1
1620713825139,149491,,2387,1
1620713825139,149511,,1378,1
1620713825139,149531,,710,1
1620713825139,149551,,336,1
1620713825139,149571,,201,1
1620713825139,149591,,231,1
1620713825139,149611,,431,1
1620713825647,149632,,665,1
1620713825647,149653,,996,1
1620713825647,149673,,1318,1
1620713825647,149693,,1380,1
1620713825647,149713,,1410,1
1620713825647,149733,,1417,1
1620713825647,149753,,1517,1
1620713825647,149773,,1760,1
1620713825647,149793,,2096,1
1620713825647,149813,,2509,1
1620713825647,149833,,2741,1
1620713825647,149853,,2816,1
1620713825647,149874,,2707,1
1620713825647,149894,,2455,1
1620713825647,149914,,2272,1
1620713825647,149934,,2019,1
1620713825647,149954,,1809,1
1620713825647,149974,,1633,1
1620713825647,149994,,1490,1
1620713825647,150014,,1434,1
1620713825647,150034,,1393,1
1620713825647,150054,,1389,1
1620713825647,150074,,1415,1
1620713825647,150095,,1463,1
1620713825647,150115,,1562,1
1620713826151,150136,,1616,1
1620713826151,150156,,1769,1
1620713826151,150176,,1863,1
1620713826151,150196,,1835,1
1620713826151,150216,,1690,1
1620713826151,150236,,1561,1
1620713826151,150256,,1445,1
1620713826151,150276,,1379,1
1620713826151,150296,,1361,1
1620713826151,150317,,1408,1
1620713826151,150337,,1470,1
1620713826151,150357,,1526,1
1620713826151,150377,,1584,1
1620713826151,150397,,1630,1
1620713826151,150417,,1722,1
1620713826151,150437,,1922,1
1620713826151,150457,,2219,1
1620713826151,150477,,2575,1
1620713826151,150497,,2851,1
1620713826151,150517,,3044,1
1620713826151,150538,,3042,1
1620713826151,150558,,2849,1
1620713826151,150578,,2603,1
1620713826151,150598,,2336,1
1620713826151,150618,,2099,1
1620713826657,150638,,1953,1
1620713826657,150658,,1887,1
1620713826657,150678,,1839,1
1620713826657,150698,,1679,1
1620713826657,150718,,1463,1
1620713826657,150738,,1376,1
1620713826657,150759,,1322,1
1620713826657,150779,,1342,1
1620713826657,150799,,1410,1
1620713826657,150819,,1502,1
1620713826657,150839,,1648,1
1620713826657,150859,,1719,1
1620713826657,150879,,1776,1
1620713826657,150899,,1806,1
1620713826657,150919,,1785,1
1620713826657,150939,,1856,1
1620713826657,150959,,1837,1
1620713826657,150980,,1774,1
1620713826657,151000,,1682,1
1620713826657,151020,,1543,1
1620713826657,151040,,1489,1
1620713826657,151060,,1416,1
1620713826657,151080,,1393,1
1620713826657,151100,,1442,1
1620713826657,151120,,1513,1
1620713827166,151140,,1653,1
1620713827166,151160,,1838,1
1620713827166,151180,,1984,1
1620713827166,151201,,2037,1
1620713827166,151221,,2100,1
1620713827166,151241,,2283,1
1620713827166,151261,,2429,1
1620713827166,151281,,2512,1
1620713827166,151301,,2507,1
1620713827166,151321,,2431,1
1620713827166,151341,,2319,1
1620713827166,151361,,2174,1
1620713827166,151381,,1991,1
1620713827166,151401,,1840,1
1620713827166,151422,,1712,1
1620713827166,151442,,1649,1
1620713827166,151462,,1614,1
1620713827166,151482,,1596,1
1620713827166,151502,,1610,1
1620713827166,151522,,1665,1
1620713827166,151542,,1761,1
1620713827166,151562,,1863,1
1620713827166,151582,,1908,1
1620713827166,151602,,1923,1
1620713827166,151622,,1894,1
1620713821125,145550,,1711,1
1620713821125,145570,,1746,1
1620713821125,145590,,1791,1
1620713821630,145610,,1887,1
1620713821630,145630,,2042,1
1620713821630,145650,,2140,1
1620713821630,145671,,2093,1
1620713821630,145691,,1926,1
1620713821630,145711,,1801,1
1620713821630,145731,,1701,1
1620713821630,145751,,1625,1
1620713821630,145771,,1579,1
1620713821630,145791,,1559,1
1620713821630,145811,,1586,1
1620713821630,145831,,1616,1
1620713821630,145851,,1634,1
1620713821630,145871,,1648,1
1620713821630,145892,,1671,1
1620713821630,145912,,1713,1
1620713821630,145932,,1744,1
1620713821630,145952,,1747,1
1620713821630,145972,,1743,1
1620713821630,145992,,1739,1
1620713821630,146012,,1787,1
1620713821630,146032,,1919,1
1620713821630,146052,,2139,1
1620713821630,146072,,2372,1
1620713821630,146092,,2586,0
1620713822139,146112,,2698,0
1620713822139,146132,,2794,0
1620713822139,146152,,2751,0
1620713822139,146172,,2630,0
1620713822139,146192,,2314,0
1620713822139,146212,,2006,0
1620713822139,146232,,1855,0
1620713822139,146252,,1713,0
1620713822139,146272,,1631,0
1620713822139,146292,,1597,0
1620713822139,146312,,1582,0
1620713822139,146333,,1659,0
1620713822139,146353,,1709,0
1620713822139,146373,,1746,0
1620713822139,146393,,1787,0
1620713822139,146413,,1790,0
1620713822139,146433,,1857,0
1620713822139,146453,,1840,0
1620713822139,146473,,1807,0
1620713822139,146493,,1767,0
1620713822139,146513,,1706,0
1620713822139,146533,,1729,0
1620713822139,146554,,1705,0
1620713822139,146574,,1679,0
1620713822139,146594,,1664,0
1620713822625,146615,,1663,0
1620713822625,146635,,1767,0
1620713822625,146655,,1866,0
1620713822625,146675,,1858,0
1620713822625,146695,,1754,0
1620713822625,146715,,1678,0
1620713822625,146735,,1659,0
1620713822625,146755,,1648,0
1620713822625,146776,,1655,0
1620713822625,146796,,1677,0
1620713822625,146816,,1711,0
1620713822625,146836,,1810,0
1620713822625,146856,,1961,0
1620713822625,146876,,2192,0
1620713822625,146896,,2419,0
1620713822625,146916,,2589,0
1620713822625,146936,,2671,0
1620713822625,146956,,2624,0
1620713822625,146976,,2467,0
1620713822625,146997,,2262,0
1620713822625,147017,,2096,0
1620713822625,147037,,1965,0
1620713822625,147057,,1881,0
1620713822625,147077,,1802,0
1620713822625,147097,,1743,1
1620713823134,147118,,1715,1
1620713823134,147138,,1823,1
1620713823134,147158,,1945,1
1620713823134,147178,,1911,1
1620713823134,147198,,1831,1
1620713823134,147219,,1793,1
1620713823134,147239,,1793,1
1620713823134,147259,,1837,1
1620713823134,147279,,1840,1
1620713823134,147299,,1840,1
1620713823134,147319,,1819,1
1620713823134,147339,,1786,1
1620713823134,147359,,1802,1
1620713823134,147379,,1769,1
1620713823134,147399,,1727,1
1620713823134,147419,,1713,1
1620713823134,147440,,1681,1
1620713823134,147460,,1779,1
1620713823134,147480,,1789,1
1620713823134,147500,,1795,1
1620713823134,147520,,1799,1
1620713823134,147540,,1776,1
1620713823134,147560,,1840,1
1620713823134,147580,,1839,1
1620713823134,147600,,1842,1
1620713823631,147621,,1915,1
1620713823631,147641,,2171,1
1620713823631,147661,,2478,1
1620713823631,147681,,2639,1
1620713823631,147701,,2622,1
1620713823631,147721,,2527,1
1620713823631,147741,,2366,1
1620713823631,147761,,2231,1
1620713823631,147781,,2064,1
1620713823631,147801,,1917,1
1620713823631,147821,,1807,1
1620713823631,147841,,1747,1
1620713823631,147861,,1729,1
1620713823631,147882,,1712,1
1620713823631,147902,,1722,1
1620713823631,147922,,1765,1
1620713823631,147942,,1809,1
1620713823631,147962,,1888,1
1620713823631,147982,,1934,1
1620713823631,148002,,1936,1
1620713823631,148022,,1915,1
1620713823631,148042,,1876,1
1620713823631,148062,,1864,1
1620713823631,148082,,1840,1
1620713823631,148103,,1788,1
1620713824144,148124,,1750,1
1620713824144,148144,,1841,1
1620713824144,148164,,1936,1
1620713824144,148184,,1870,1
1620713824144,148204,,1744,1
1620713824144,148224,,1661,1
1620713824144,148244,,1635,1
1620713824144,148264,,1663,1
1620713824144,148284,,1714,1
1620713824144,148304,,1744,1
1620713824144,148325,,1789,1
1620713824144,148345,,1870,1
1620713824144,148365,,2034,1
1620713824144,148385,,2320,1
1620713824144,148405,,2543,1
1620713824144,148425,,2688,1
1620713824144,148445,,2719,1
1620713824144,148465,,2599,1
1620713824144,148485,,2534,1
1620713824144,148505,,2330,1
1620713824144,148525,,2153,1
1620713824144,148546,,1994,1
1620713824144,148566,,1887,1
1620713824144,148586,,1883,1
1620713824144,148606,,1850,1
1620713824650,148627,,1836,1
1620713824650,148647,,1950,1
1620713824650,148667,,2053,1
1620713824650,148687,,2077,1
1620713824650,148707,,1974,1
1620713824650,148727,,1917,1
1620713824650,148747,,1889,1
1620713824650,148768,,1870,1
1620713824650,148788,,1961,1
1620713824650,148808,,1996,1
1620713824650,148828,,2015,1
1620713824650,148848,,2032,1
1620713824650,148868,,1993,1
1620713824650,148888,,2020,1
1620713824650,148908,,1984,1
1620713824650,148928,,1926,1
1620713824650,148948,,1885,1
1620713824650,148968,,1862,1
1620713824650,148989,,1872,1
1620713824650,149009,,1859,1
1620713824650,149029,,1853,1
1620713824650,149049,,1863,1
1620713824650,149069,,1985,1
1620713824650,149089,,2656,1
1620713824650,149109,,4019,1
1620713825139,149129,,4013,1
1620713825139,149149,,4015,1
1620713825139,149169,,4018,1
1620713825139,149189,,4016,1
1620713825139,149210,,4016,1
1620713825139,149230,,4017,1
1620713825139,149250,,4016,1
1620713825139,149270,,4016,1
1620713825139,149290,,4012,1
1620713825139,149310,,4016,1
1620713825139,149330,,4015,1
1620713825139,149350,,4013,1
1620713825139,149370,,4013,1
1620713825139,149390,,4015,1
1620713825139,149410,,4010,1
1620713825139,149431,,4015,1
1620713825139,149451,,4011,1
1620713825139,149471,,4013,1
1620713825139,149491,,2387,1
1620713825139,149511,,1378,1
1620713825139,149531,,710,1
1620713825139,149551,,336,1
1620713825139,149571,,201,1
1620713825139,149591,,231,1
1620713825139,149611,,431,1
1620713825647,149632,,665,1
1620713825647,149653,,996,1
1620713825647,149673,,1318,1
1620713825647,149693,,1380,1
1620713825647,149713,,1410,1
1620713825647,149733,,1417,1
1620713825647,149753,,1517,1
1620713825647,149773,,1760,1
1620713825647,149793,,2096,1
1620713825647,149813,,2509,1
1620713825647,149833,,2741,1
1620713825647,149853,,2816,1
1620713825647,149874,,2707,1
1620713825647,149894,,2455,1
1620713825647,149914,,2272,1
1620713825647,149934,,2019,1
1620713825647,149954,,1809,1
1620713825647,149974,,1633,1
1620713825647,149994,,1490,1
1620713825647,150014,,1434,1
1620713825647,150034,,1393,1
1620713825647,150054,,1389,1
1620713825647,150074,,1415,1
1620713825647,150095,,1463,1
1620713825647,150115,,1562,1
1620713826151,150136,,1616,1
1620713826151,150156,,1769,1
1620713826151,150176,,1863,1
1620713826151,150196,,1835,1
1620713826151,150216,,1690,1
1620713826151,150236,,1561,1
1620713826151,150256,,1445,1
1620713826151,150276,,1379,1
1620713826151,150296,,1361,1
1620713826151,150317,,1408,1
1620713826151,150337,,1470,1
1620713826151,150357,,1526,1
1620713826151,150377,,1584,1
1620713826151,150397,,1630,1
1620713826151,150417,,1722,1
1620713826151,150437,,1922,1
1620713826151,150457,,2219,1
1620713826151,150477,,2575,1
1620713826151,150497,,2851,1
1620713826151,150517,,3044,1
1620713826151,150538,,3042,1
1620713826151,150558,,2849,1
1620713826151,150578,,2603,1
1620713826151,150598,,2336,1
1620713826151,150618,,2099,1
1620713826657,150638,,1953,1
1620713826657,150658,,1887,1
1620713826657,150678,,1839,1
1620713826657,150698,,1679,1
1620713826657,150718,,1463,1
1620713826657,150738,,1376,1
1620713826657,150759,,1322,1
1620713826657,150779,,1342,1
1620713826657,150799,,1410,1
1620713826657,150819,,1502,1
1620713826657,150839,,1648,1
1620713826657,150859,,1719,1
1620713826657,150879,,1776,1
1620713826657,150899,,1806,1
1620713826657,150919,,1785,1
1620713826657,150939,,1856,1
1620713826657,150959,,1837,1
1620713826657,150980,,1774,1
1620713826657,151000,,1682,1
1620713826657,151020,,1543,1
1620713826657,151040,,1489,1
1620713826657,151060,,1416,1
1620713826657,151080,,1393,1
1620713826657,151100,,1442,1
1620713826657,151120,,1513,1
1620713827166,151140,,1653,1
1620713827166,151160,,1838,1
1620713827166,151180,,1984,1
1620713827166,151201,,2037,1
1620713827166,151221,,2100,1
1620713827166,151241,,2283,1
1620713827166,151261,,2429,1
1620713827166,151281,,2512,1
1620713827166,151301,,2507,1
1620713827166,151321,,2431,1
1620713827166,151341,,2319,1
1620713827166,151361,,2174,1
1620713827166,151381,,1991,1
1620713827166,151401,,1840,1
1620713827166,151422,,1712,1
1620713827166,151442,,1649,1
1620713827166,151462,,1614,1
1620713827166,151482,,1596,1
1620713827166,151502,,1610,1
1620713827166,151522,,1665,1
1620713827166,151542,,1761,1
1620713827166,151562,,1863,1
1620713827166,151582,,1908,1
1620713827166,151602,,1923,1
1620713827166,151622,,1894,1
1620713827663,151642,,1823,1
1620713827663,151662,,1859,1
1620713827663,151682,,1879,1
1620713827663,151702,,1783,1
1620713827663,151722,,1623,1
1620713827663,151742,,1479,1
1620713827663,151762,,1456,1
1620713827663,151782,,1430,1
1620713827663,151802,,1441,1
1620713827663,151822,,1483,1
1620713827663,151842,,1503,1
1620713827663,151863,,1616,1
1620713827663,151883,,1638,1
1620713827663,151903,,1644,1
1620713827663,151923,,1665,1
1620713827663,151943,,1723,1
1620713827663,151963,,1977,1
1620713827663,151983,,2214,1
1620713827663,152003,,2380,1
1620713827663,152023,,2441,1
1620713827663,152043,,2359,1
1620713827663,152063,,2279,1
1620713827663,152084,,2059,1
1620713827663,152104,,1838,1
1620713827663,152124,,1653,1
1620713828159,152145,,1507,1
1620713828159,152165,,1523,1
1620713828159,152185,,1565,1
1620713828159,152205,,1478,1
1620713828159,152225,,1359,1
1620713828159,152245,,1313,1
1620713828159,152265,,1382,1
1620713828159,152285,,1473,1
1620713828159,152306,,1569,1
1620713828159,152326,,1639,1
1620713828159,152346,,1681,1
1620713828159,152366,,1715,1
1620713828159,152386,,1685,1
1620713828159,152406,,1626,1
1620713828159,152426,,1569,1
1620713828159,152446,,1529,1
1620713828159,152466,,1551,1
1620713828159,152486,,1583,1
1620713828159,152506,,1599,1
1620713828159,152527,,1622,1
1620713828159,152547,,1659,0
1620713828159,152567,,1712,0
1620713828159,152587,,1759,0
1620713828159,152607,,1779,0
1620713828159,152627,,1840,0
1620713828659,152647,,1961,0
1620713828659,152667,,2305,0
1620713828659,152687,,2668,0
1620713828659,152707,,2832,0
1620713828659,152727,,2805,0
1620713828659,152748,,2694,0
1620713828659,152768,,2512,0
1620713828659,152788,,2339,0
1620713828659,152808,,2111,0
1620713828659,152828,,1834,0
1620713828659,152848,,1604,0
1620713828659,152868,,1389,0
1620713828659,152888,,1334,0
1620713828659,152908,,1277,0
1620713828659,152928,,1293,0
1620713828659,152948,,1381,0
1620713828659,152969,,1514,0
1620713828659,152989,,1742,0
1620713828659,153009,,1882,0
1620713828659,153029,,1975,0
1620713828659,153049,,2011,0
1620713828659,153069,,1978,0
1620713828659,153089,,1997,0
1620713828659,153109,,1930,0
1620713828659,153129,,1851,0
1620713829187,153150,,1766,0
1620713829187,153170,,1831,0
1620713829187,153190,,1903,0
1620713829187,153210,,1867,0
1620713829187,153230,,1764,0
1620713829187,153250,,1718,0
1620713829187,153270,,1703,0
1620713829187,153290,,1776,0
1620713829187,153310,,1885,0
1620713829187,153330,,2096,0
1620713829187,153350,,2377,0
1620713829187,153370,,2697,0
1620713829187,153390,,3005,0
1620713829187,153411,,3205,0
1620713829187,153431,,3238,0
1620713829187,153451,,3161,0
1620713829187,153471,,3039,0
1620713829187,153491,,2922,0
1620713829187,153511,,2801,0
1620713829187,153531,,2628,0
1620713829187,153551,,2451,0
1620713829187,153571,,2307,0
1620713829187,153591,,2205,0
1620713829187,153611,,2129,0
1620713829187,153632,,2054,0
1620713829674,153653,,2019,0
1620713829674,153673,,2128,0
1620713829674,153693,,2256,1
1620713829674,153713,,2194,1
1620713829674,153733,,2067,1
1620713829674,153753,,1940,1
1620713829674,153773,,1839,1
1620713829674,153793,,1749,1
1620713829674,153813,,1723,1
1620713829674,153833,,1650,1
1620713829674,153854,,1586,1
1620713829674,153874,,1549,1
1620713829674,153894,,1521,1
1620713829674,153914,,1574,1
1620713829674,153934,,1581,1
1620713829674,153954,,1595,1
1620713829674,153974,,1603,1
1620713829674,153994,,1626,1
1620713829674,154014,,1761,1
1620713829674,154034,,1968,1
1620713829674,154054,,2288,1
1620713829674,154075,,2703,1
1620713829674,154095,,2959,0
1620713829674,154115,,3171,0
1620713829674,154135,,3107,0
1620713830169,154156,,2864,0
1620713830169,154176,,2699,0
1620713830169,154196,,2444,0
1620713830169,154216,,2180,0
1620713830169,154236,,1818,0
1620713830169,154256,,1535,0
1620713830169,154276,,1377,0
1620713830169,154297,,1293,0
1620713830169,154317,,1374,0
1620713830169,154337,,1443,0
1620713830169,154357,,1529,0
1620713830169,154377,,1647,0
1620713830169,154397,,1725,0
1620713830169,154417,,1840,0
1620713830169,154437,,1872,0
1620713830169,154457,,1865,0
1620713830169,154477,,1840,0
1620713830169,154497,,1805,0
1620713830169,154518,,1782,0
1620713830169,154538,,1740,0
1620713830169,154558,,1686,0
1620713830169,154578,,1653,0
1620713830169,154598,,1637,0
1620713830169,154618,,1664,0
1620713830169,154638,,1681,0
1620713830669,154659,,1680,0
1620713830669,154679,,1787,0
1620713830669,154699,,1909,0
1620713830669,154719,,1867,0
1620713830669,154740,,1745,0
1620713830669,154760,,1665,0
1620713830669,154780,,1699,0
1620713830669,154800,,1884,0
1620713830669,154820,,2189,0
1620713830669,154840,,2538,0
1620713830669,154860,,2795,0
1620713830669,154880,,2885,0
1620713830669,154900,,2832,0
1620713830669,154920,,2688,0
1620713830669,154940,,2498,0
1620713830669,154961,,2288,0
1620713830669,154981,,2106,0
1620713830669,155001,,1974,0
1620713830669,155021,,1862,0
1620713830669,155041,,1805,0
1620713830669,155061,,1735,0
1620713830669,155081,,1687,0
1620713830669,155101,,1669,1
1620713830669,155121,,1667,1
1620713830669,155141,,1749,1
1620713831170,155161,,1790,1
1620713831170,155182,,1935,1
1620713831170,155202,,2038,1
1620713831170,155222,,1943,1
1620713831170,155242,,1841,1
1620713831170,155262,,1712,1
1620713831170,155282,,1617,1
1620713831170,155302,,1565,1
1620713831170,155322,,1521,1
1620713831170,155342,,1616,1
1620713831170,155362,,1647,1
1620713831170,155382,,1674,1
1620713831170,155403,,1699,1
1620713831170,155423,,1687,1
1620713831170,155443,,1766,1
1620713831170,155463,,1874,1
1620713831170,155483,,1945,1
1620713831170,155503,,2003,1
1620713831170,155523,,1975,1
1620713831170,155543,,2096,1
1620713831170,155563,,2430,1
1620713831170,155583,,2735,1
1620713831170,155603,,2903,1
1620713831170,155624,,2798,1
1620713831170,155644,,2545,1
1620713831677,155665,,2432,1
1620713831677,155685,,2287,1
1620713831677,155705,,2156,1
1620713831677,155725,,1997,1
1620713831677,155745,,1763,1
1620713831677,155765,,1600,1
1620713831677,155785,,1488,1
1620713831677,155805,,1459,1
1620713831677,155825,,1489,1
1620713831677,155846,,1599,1
1620713831677,155866,,1708,1
1620713831677,155886,,1776,1
1620713831677,155906,,1814,1
1620713831677,155926,,1825,1
1620713831677,155946,,1827,1
1620713831677,155966,,1807,1
1620713831677,155986,,1747,1
1620713831677,156006,,1681,1
1620713831677,156026,,1633,1
1620713831677,156046,,1600,1
1620713831677,156067,,1613,1
1620713831677,156087,,1594,1
1620713831677,156107,,1589,1
1620713831677,156127,,1597,1
1620713831677,156147,,1584,1
1620713832180,156167,,1712,1
1620713832180,156187,,1835,1
1620713832180,156207,,1878,1
1620713832180,156227,,1886,1
1620713832180,156247,,1936,1
1620713832180,156267,,1988,1
1620713832180,156288,,2109,1
1620713832180,156308,,2318,1
1620713832180,156328,,2543,1
1620713832180,156348,,2650,1
1620713832180,156368,,2720,1
1620713832180,156388,,2630,1
1620713832180,156408,,2461,1
1620713832180,156428,,2279,1
1620713832180,156448,,2109,1
1620713832180,156468,,2009,1
1620713832180,156488,,1887,1
1620713832180,156509,,1779,1
1620713832180,156529,,1707,1
1620713832180,156549,,1645,1
1620713832180,156569,,1694,1
1620713832180,156589,,1726,1
1620713832180,156609,,1762,1
1620713832180,156629,,1803,1
1620713832180,156649,,1830,1
1620713832696,156670,,1876,1
1620713832696,156690,,1979,1
1620713832696,156710,,2030,1
1620713832696,156731,,1911,1
1620713832696,156751,,1712,1
1620713832696,156771,,1627,1
1620713832696,156791,,1552,1
1620713832696,156811,,1499,1
1620713832696,156831,,1499,1
1620713832696,156851,,1534,1
1620713832696,156871,,1587,1
1620713832696,156891,,1751,1
1620713832696,156911,,1862,1
1620713832696,156931,,1904,1
1620713832696,156952,,1899,1
1620713832696,156972,,1881,1
1620713832696,156992,,1699,1
1620713832696,157012,,1545,1
1620713832696,157032,,1461,1
1620713832696,157052,,1471,1
1620713832696,157072,,1589,1
1620713832696,157092,,1847,1
1620713832696,157112,,2160,1
1620713832696,157132,,2444,1
1620713832696,157152,,2661,1
1620713833186,157172,,2736,1
1620713833186,157192,,2801,1
1620713833186,157212,,2766,1
1620713833186,157232,,2538,1
1620713833186,157252,,2253,1
1620713833186,157272,,1998,1
1620713833186,157292,,1945,1
1620713833186,157312,,1950,1
1620713833186,157332,,1950,1
1620713833186,157352,,1936,1
1620713833186,157372,,1941,1
1620713833186,157393,,1898,1
1620713833186,157413,,1805,1
1620713833186,157433,,1776,1
1620713833186,157453,,1803,1
1620713833186,157473,,1825,1
1620713833186,157493,,1920,1
1620713833186,157513,,1939,1
1620713833186,157533,,1926,1
1620713833186,157553,,1902,1
1620713833186,157573,,1840,1
1620713833186,157593,,1856,1
1620713833186,157614,,1819,1
1620713833186,157634,,1794,1
1620713833186,157654,,1775,1
1620713833686,157675,,1772,1
1620713833686,157695,,1887,1
1620713833686,157715,,1984,1
1620713833686,157735,,1966,1
1620713833686,157755,,1835,1
1620713833686,157775,,1727,1
1620713833686,157795,,1712,1
1620713833686,157815,,1712,1
1620713833686,157836,,1797,1
1620713833686,157856,,1991,1
1620713833686,157876,,2263,1
1620713833686,157896,,2588,1
1620713833686,157916,,2781,1
1620713833686,157936,,2806,1
1620713833686,157956,,2717,1
1620713833686,157976,,2541,1
1620713833686,157996,,2364,1
1620713833686,158016,,2199,1
1620713833686,158036,,2047,1
1620713833686,158057,,1933,1
1620713833686,158077,,1854,1
1620713833686,158097,,1824,1
1620713833686,158117,,1822,1
1620713833686,158137,,1818,1
1620713833686,158157,,1835,1
1620713834201,158178,,1875,1
1620713834201,158198,,2005,1
1620713834201,158218,,2154,1
1620713834201,158238,,2101,1
1620713834201,158258,,1963,1
1620713834201,158279,,1853,1
1620713834201,158299,,1777,1
1620713834201,158319,,1763,1
1620713834201,158339,,1702,1
1620713834201,158359,,1803,1
1620713834201,158379,,1899,1
1620713834201,158399,,1972,1
1620713834201,158419,,1894,1
1620713834201,158439,,1748,1
1620713834201,158459,,1641,1
1620713834201,158479,,1587,1
1620713834201,158500,,1535,1
1620713834201,158520,,1648,1
1620713834201,158540,,1676,1
1620713834201,158560,,1703,1
1620713834201,158580,,1827,1
1620713834201,158600,,2022,1
1620713834201,158620,,2352,1
1620713834201,158640,,2622,0
1620713834201,158660,,2790,0
1620713838218,162222,,2640,0
1620713838218,162242,,2713,0
1620713838218,162263,,2526,0
1620713838218,162283,,2227,0
1620713838218,162303,,2061,0
1620713838218,162323,,1874,0
1620713838218,162343,,1745,0
1620713838218,162363,,1671,0
1620713838218,162383,,1627,0
1620713838218,162403,,1659,0
1620713838218,162423,,1670,0
1620713838218,162443,,1690,0
1620713838218,162463,,1728,0
1620713838218,162484,,1775,0
1620713838218,162504,,1850,0
1620713838218,162524,,1874,0
1620713838218,162544,,1878,0
1620713838218,162564,,1872,0
1620713838218,162584,,1857,0
1620713838218,162604,,1856,0
1620713838218,162624,,1833,0
1620713838218,162644,,1793,0
1620713838218,162664,,1763,0
1620713838218,162684,,1737,0
1620713838720,162704,,1726,0
1620713838720,162724,,1843,0
1620713838720,162744,,1957,0
1620713838720,162764,,1931,0
1620713838720,162784,,1815,0
1620713838720,162804,,1731,0
1620713838720,162824,,1703,0
1620713838720,162844,,1686,0
1620713838720,162864,,1728,0
1620713838720,162884,,1840,0
1620713838720,162904,,2025,0
1620713838720,162925,,2319,0
1620713838720,162945,,2518,0
1620713838720,162965,,2640,0
1620713838720,162985,,2638,0
1620713838720,163005,,2523,0
1620713838720,163025,,2411,0
1620713838720,163045,,2231,0
1620713838720,163065,,2064,0
1620713838720,163085,,1931,0
1620713838720,163105,,1808,0
1620713838720,163125,,1831,0
1620713838720,163146,,1779,0
1620713838720,163166,,1744,0
1620713838720,163186,,1729,0
1620713839216,163206,,1761,0
1620713839216,163226,,1895,0
1620713839216,163246,,2015,0
1620713839216,163266,,1999,0
1620713839216,163286,,1885,0
1620713839216,163306,,1791,0
1620713839216,163326,,1760,0
1620713839216,163346,,1713,0
1620713839216,163367,,1682,0
1620713839216,163387,,1677,0
1620713839216,163407,,1680,0
1620713839216,163427,,1730,0
1620713839216,163447,,1744,0
1620713839216,163467,,1751,0
1620713839216,163487,,1753,0
1620713839216,163507,,1762,0
1620713839216,163527,,1795,0
1620713839216,163547,,1823,0
1620713839216,163567,,1808,0
1620713839216,163588,,1791,0
1620713839216,163608,,1775,0
1620713839216,163628,,1792,0
1620713839216,163648,,1805,0
1620713839216,163668,,1846,0
1620713839216,163688,,1965,0
1620713839724,163708,,2141,0
1620713839724,163728,,2448,0
1620713839724,163748,,2672,0
1620713839724,163768,,2663,0
1620713839724,163788,,2480,0
1620713839724,163809,,2252,0
1620713839724,163829,,2086,0
1620713839724,163849,,1947,0
1620713839724,163869,,1839,0
1620713839724,163889,,1746,0
1620713839724,163909,,1708,0
1620713839724,163929,,1662,0
1620713839724,163949,,1729,0
1620713839724,163969,,1729,0
1620713839724,163989,,1741,0
1620713839724,164009,,1764,0
1620713839724,164030,,1791,0
1620713839724,164050,,1866,0
1620713839724,164070,,1874,0
1620713839724,164090,,1873,0
1620713839724,164110,,1857,0
1620713839724,164130,,1808,0
1620713839724,164150,,1843,0
1620713839724,164170,,1811,0
1620713839724,164190,,1778,0
1620713840233,164211,,1759,0
1620713840233,164231,,1847,0
1620713840233,164252,,1939,0
1620713840233,164272,,1879,0
1620713840233,164292,,1774,0
1620713840233,164312,,1707,0
1620713840233,164332,,1652,0
1620713840233,164352,,1713,0
1620713840233,164372,,1731,0
1620713840233,164392,,1744,0
1620713840233,164412,,1761,0
1620713840233,164432,,1767,0
1620713840233,164452,,1831,0
1620713840233,164473,,1872,0
1620713840233,164493,,1952,0
1620713840233,164513,,2095,0
1620713840233,164533,,2238,0
1620713840233,164553,,2399,0
1620713840233,164573,,2445,0
1620713840233,164593,,2411,0
1620713840233,164613,,2304,0
1620713840233,164633,,2160,0
1620713840233,164654,,2046,0
1620713840233,164674,,1930,0
1620713840233,164695,,1816,0
1620713840732,164716,,1739,0
1620713840732,164736,,1789,0
1620713840732,164756,,1839,0
1620713840732,164776,,1857,0
1620713840732,164796,,1867,0
1620713840732,164816,,1863,0
1620713840732,164836,,1755,0
1620713840732,164856,,1721,0
1620713840732,164876,,1717,0
1620713840732,164896,,1712,0
1620713840732,164917,,1717,0
1620713840732,164937,,1729,0
1620713840732,164957,,1763,0
1620713840732,164977,,1777,0
1620713840732,164997,,1772,0
1620713840732,165017,,1767,0
1620713840732,165037,,1759,0
1620713840732,165057,,1731,0
1620713840732,165077,,1839,0
1620713840732,165097,,1930,0
1620713840732,165117,,1968,0
1620713840732,165138,,1967,0
1620713840732,165158,,1963,0
1620713840732,165178,,1840,0
1620713840732,165198,,1714,0
1620713841238,165219,,1653,0
1620713841238,165239,,1758,0
1620713841238,165259,,1863,0
1620713841238,165279,,1872,0
1620713841238,165299,,1826,0
1620713841238,165319,,1855,0
1620713841238,165339,,1969,0
1620713841238,165360,,2135,0
1620713841238,165380,,2289,0
1620713841238,165400,,2324,0
1620713841238,165420,,2288,0
1620713841238,165440,,2209,0
1620713841238,165460,,2067,0
1620713841238,165480,,2021,0
1620713841238,165500,,1911,0
1620713841238,165520,,1833,0
1620713841238,165540,,1776,0
1620713841238,165560,,1726,0
1620713841238,165581,,1773,1
1620713841238,165601,,1773,1
1620713841238,165621,,1779,1
1620713841238,165641,,1815,1
1620713841238,165661,,1841,1
1620713841238,165681,,1920,1
1620713841238,165701,,1935,1
1620713841733,165721,,1931,1
1620713841733,165741,,2016,1
1620713841733,165761,,2080,1
1620713841733,165781,,2043,1
1620713841733,165802,,1899,1
1620713841733,165822,,1790,1
1620713841733,165842,,1730,1
1620713841733,165862,,1714,1
1620713841733,165882,,1753,1
1620713841733,165902,,1785,1
1620713841733,165922,,1804,1
1620713841733,165942,,1823,1
1620713841733,165962,,1854,1
1620713841733,165982,,1889,1
1620713841733,166002,,1902,1
1620713841733,166023,,1890,1
1620713841733,166043,,1895,1
1620713841733,166063,,1935,1
1620713841733,166083,,2064,1
1620713841733,166103,,2203,1
1620713841733,166123,,2330,1
1620713841733,166143,,2394,1
1620713841733,166163,,2384,1
1620713841733,166183,,2315,1
1620713841733,166203,,2224,1
1620713842260,166223,,2096,1
1620713842260,166244,,2082,1
1620713842260,166264,,2084,1
1620713842260,166284,,1952,1
1620713842260,166304,,1820,1
1620713842260,166324,,1708,1
1620713842260,166344,,1658,1
1620713842260,166364,,1659,1
1620713842260,166384,,1681,1
1620713842260,166404,,1778,1
1620713842260,166424,,1825,1
1620713842260,166444,,1859,1
1620713842260,166465,,1873,1
1620713842260,166485,,1858,1
1620713842260,166505,,1899,1
1620713842260,166525,,1872,1
1620713842260,166545,,1850,1
1620713842260,166565,,1831,1
1620713842260,166585,,1781,0
1620713842260,166605,,1840,0
1620713842260,166625,,1833,0
1620713842260,166645,,1808,0
1620713842260,166665,,1807,0
1620713842260,166686,,1782,0
1620713842260,166706,,1840,0
1620713842740,166726,,1840,0
1620713842740,166746,,1935,0
1620713842740,166766,,2006,0
1620713842740,166786,,1954,0
1620713842740,166806,,1876,0
1620713842740,166826,,1817,0
1620713842740,166846,,1819,0
1620713842740,166866,,1915,0
1620713842740,166886,,2094,0
1620713842740,166906,,2279,0
1620713842740,166926,,2367,0
1620713842740,166946,,2366,0
1620713842740,166966,,2301,0
1620713842740,166986,,2201,0
1620713842740,167006,,2111,0
1620713842740,167026,,2016,0
1620713842740,167046,,1932,0
1620713842740,167066,,1868,0
1620713842740,167086,,1828,0
1620713842740,167106,,1811,0
1620713842740,167127,,1822,0
1620713842740,167147,,1821,0
1620713842740,167167,,1831,0
1620713842740,167187,,1853,0
1620713842740,167207,,1894,0
1620713843247,167227,,1939,0
1620713843247,167247,,2046,0
1620713843247,167267,,2121,0
1620713843247,167287,,2042,0
1620713843247,167307,,1873,0
1620713843247,167327,,1825,0
1620713843247,167348,,1746,0
1620713843247,167368,,1712,0
1620713843247,167388,,1714,0
1620713843247,167408,,1726,0
1620713843247,167428,,1805,0
1620713843247,167448,,1824,0
1620713843247,167468,,1846,0
1620713843247,167488,,1871,0
1620713843247,167508,,1845,0
1620713843247,167528,,1914,0
1620713843247,167548,,2023,0
1620713843247,167569,,2095,0
1620713843247,167589,,2122,0
1620713843247,167609,,2177,0
1620713843247,167629,,2262,0
1620713843247,167649,,2251,0
1620713843247,167669,,2241,0
1620713843247,167689,,2219,0
1620713843247,167709,,2160,0
1620713843753,167729,,2114,0
1620713843753,167749,,2157,0
1620713843753,167769,,2186,0
1620713843753,167790,,2079,0
1620713843753,167810,,1904,0
1620713843753,167830,,1824,0
1620713843753,167850,,1765,0
1620713843753,167870,,1734,0
1620713843753,167890,,1741,0
1620713843753,167910,,1783,0
1620713843753,167930,,1863,1
1620713843753,167950,,1921,1
1620713843753,167970,,1968,1
1620713843753,167990,,1985,1
1620713843753,168011,,1984,1
1620713843753,168031,,1985,1
1620713843753,168051,,1951,1
1620713843753,168071,,1902,1
1620713843753,168091,,1844,1
1620713843753,168111,,1808,1
1620713843753,168131,,1807,1
1620713843753,168151,,1809,1
1620713843753,168171,,1803,1
1620713843753,168191,,1797,1
1620713843753,168211,,1806,1
1620713844241,168231,,1819,1
1620713844241,168251,,1933,1
1620713844241,168271,,2023,1
1620713844241,168291,,1986,1
1620713844241,168311,,1871,1
1620713844241,168331,,1782,1
1620713844241,168351,,1790,1
1620713844241,168371,,1815,1
1620713844241,168391,,1936,1
1620713844241,168411,,2125,1
1620713844241,168431,,2275,0
1620713844241,168452,,2471,0
1620713844241,168472,,2499,0
1620713844241,168492,,2444,0
1620713844241,168512,,2342,0
1620713844241,168532,,2195,0
1620713844241,168552,,2161,0
1620713844241,168572,,2061,0
1620713844241,168592,,1953,0
1620713844241,168612,,1872,0
1620713844241,168632,,1792,0
1620713844241,168652,,1825,0
1620713844241,168673,,1808,0
1620713844241,168693,,1803,0
1620713844241,168713,,1816,0
1620713844745,168734,,1840,0
1620713844745,168754,,1983,0
1620713844745,168774,,2093,0
1620713844745,168794,,2027,0
1620713844745,168814,,1903,0
1620713844745,168834,,1795,0
1620713844745,168854,,1782,0
1620713844745,168874,,1758,0
1620713844745,168895,,1739,0
1620713844745,168915,,1730,0
1620713844745,168935,,1747,0
1620713844745,168955,,1805,0
1620713844745,168975,,1830,0
1620713844745,168995,,1810,0
1620713844745,169015,,1798,0
1620713844745,169035,,1794,0
1620713844745,169055,,1822,0
1620713844745,169075,,1835,0
1620713844745,169095,,1827,0
1620713844745,169116,,1827,0
1620713844745,169136,,1831,0
1620713844745,169156,,1861,0
1620713844745,169176,,1911,0
1620713844745,169196,,2003,0
1620713844745,169216,,2162,0
1620713845252,169237,,2347,0
1620713845252,169257,,2545,0
1620713845252,169277,,2669,0
1620713845252,169297,,2554,0
1620713845252,169317,,2330,0
1620713845252,169338,,2128,0
1620713845252,169358,,1978,0
1620713845252,169378,,1902,0
1620713845252,169398,,1837,0
1620713845252,169418,,1797,0
1620713845252,169438,,1772,1
1620713845252,169458,,1762,1
1620713845252,169478,,1808,1
1620713845252,169498,,1823,1
1620713845252,169518,,1844,1
1620713845252,169538,,1872,1
1620713845252,169559,,1882,1
1620713845252,169579,,1941,1
1620713845252,169599,,1933,1
1620713845252,169619,,1904,1
1620713845252,169639,,1872,1
1620713845252,169659,,1808,1
1620713845252,169679,,1865,1
1620713845252,169699,,1824,1
1620713845252,169719,,1793,1
1620713845766,169739,,1785,1
1620713845766,169759,,1890,1
1620713845766,169780,,1963,1
1620713845766,169800,,1970,1
1620713845766,169820,,1859,1
1620713845766,169840,,1774,1
1620713845766,169860,,1704,1
1620713845766,169880,,1748,1
1620713845766,169900,,1744,1
1620713845766,169920,,1725,1
1620713845766,169940,,1744,1
1620713845766,169960,,1790,1
1620713845766,169980,,1881,1
1620713845766,170001,,1954,1
1620713845766,170021,,2038,1
1620713845766,170041,,2151,1
1620713845766,170061,,2256,1
1620713845766,170081,,2336,1
1620713845766,170101,,2333,1
1620713845766,170121,,2266,1
1620713845766,170141,,2173,1
1620713845766,170161,,2071,1
1620713845766,170181,,2017,1
1620713845766,170201,,1975,1
1620713845766,170222,,1936,1
1620713846334,170242,,1926,1
1620713846334,170262,,2034,1
1620713846334,170282,,2135,1
1620713846334,170302,,2074,1
1620713846334,170322,,1939,1
1620713846334,170342,,1843,1
1620713846334,170362,,1790,1
1620713846334,170382,,1761,1
1620713846334,170402,,1763,1
1620713846334,170422,,1713,1
1620713846334,170443,,1654,0
1620713846334,170463,,1619,0
1620713846334,170483,,1607,0
1620713846334,170503,,1648,0
1620713846334,170523,,1680,0
1620713846334,170543,,1751,0
1620713846334,170563,,1852,0
1620713846334,170583,,1943,0
1620713846334,170603,,2058,0
1620713846334,170623,,2096,0
1620713846334,170643,,2112,0
1620713846334,170664,,2106,0
1620713846334,170684,,2060,0
1620713846334,170704,,2054,0
1620713846334,170724,,1973,0
1620713846760,170745,,1879,0
1620713846760,170765,,1890,0
1620713846760,170785,,1889,0
1620713846760,170805,,1858,0
1620713846760,170825,,1799,0
1620713846760,170845,,1840,0
1620713846760,170865,,1987,0
1620713846760,170886,,2143,0
1620713846760,170906,,2318,0
1620713846760,170926,,2341,0
1620713846760,170946,,2288,0
1620713846760,170966,,2192,0
1620713846760,170986,,2079,0
1620713846760,171006,,2001,0
1620713846760,171026,,1913,0
1620713846760,171046,,1819,0
1620713846760,171066,,1729,0
1620713846760,171086,,1681,0
1620713846760,171107,,1708,0
1620713846760,171127,,1753,0
1620713846760,171147,,1823,0
1620713846760,171167,,1898,0
1620713846760,171187,,1969,0
1620713846760,171207,,2055,0
1620713846760,171227,,2077,0
1620713847261,171247,,2065,0
1620713847261,171267,,2115,0
1620713847261,171287,,2146,0
1620713847261,171307,,2043,0
1620713847261,171328,,1855,0
1620713847261,171348,,1712,0
1620713847261,171368,,1619,0
1620713847261,171388,,1583,0
1620713847261,171408,,1602,0
1620713847261,171428,,1647,0
1620713847261,171448,,1680,0
1620713847261,171468,,1730,0
1620713847261,171488,,1789,0
1620713847261,171508,,1840,0
1620713847261,171528,,1906,0
1620713847261,171549,,1936,0
1620713847261,171569,,1948,0
1620713847261,171589,,2007,0
1620713847261,171609,,2117,0
1620713847261,171629,,2202,0
1620713847261,171649,,2231,0
1620713847261,171669,,2256,0
1620713847261,171689,,2243,0
1620713847261,171709,,2209,0
1620713847261,171729,,2287,0
1620713847767,171749,,2380,0
1620713847767,171770,,2506,0
1620713847767,171790,,2514,0
1620713847767,171810,,2294,0
1620713847767,171830,,2099,0
1620713847767,171850,,1856,0
1620713847767,171870,,1729,0
1620713847767,171890,,1687,0
1620713847767,171910,,1676,0
1620713847767,171930,,1791,0
1620713847767,171950,,1839,0
1620713847767,171970,,1840,0
1620713847767,171991,,1830,0
1620713847767,172011,,1793,0
1620713847767,172031,,1842,0
1620713847767,172051,,1847,0
1620713847767,172071,,1857,0
1620713847767,172091,,1863,0
1620713847767,172111,,1858,0
1620713847767,172131,,1886,0
1620713847767,172151,,1866,0
1620713847767,172171,,1843,0
1620713847767,172191,,1821,0
1620713847767,172212,,1789,0
1620713847767,172232,,1775,0
1620713848270,172253,,1739,0
1620713848270,172273,,1823,0
1620713848270,172293,,1907,0
1620713848270,172313,,1890,0
1620713848270,172333,,1898,0
1620713848270,172353,,1983,0
1620713848270,172373,,2101,0
1620713848270,172393,,2225,0
1620713848270,172413,,2289,0
1620713848270,172434,,2313,0
1620713848270,172454,,2275,0
1620713848270,172474,,2179,0
1620713848270,172494,,2087,0
1620713848270,172514,,1968,0
1620713848270,172534,,1889,0
1620713848270,172554,,1829,0
1620713848270,172574,,1756,0
1620713848270,172594,,1712,0
1620713848270,172614,,1699,0
1620713848270,172634,,1712,0
1620713848270,172655,,1782,0
1620713848270,172675,,1794,0
1620713848270,172695,,1798,0
1620713848270,172715,,1802,0
1620713848270,172735,,1806,0
1620713844745,168734,,1840,0
1620713844745,168754,,1983,0
1620713844745,168774,,2093,0
1620713844745,168794,,2027,0
1620713844745,168814,,1903,0
1620713844745,168834,,1795,0
1620713844745,168854,,1782,0
1620713844745,168874,,1758,0
1620713844745,168895,,1739,0
1620713844745,168915,,1730,0
1620713844745,168935,,1747,0
1620713844745,168955,,1805,0
1620713844745,168975,,1830,0
1620713844745,168995,,1810,0
1620713844745,169015,,1798,0
1620713844745,169035,,1794,0
1620713844745,169055,,1822,0
1620713844745,169075,,1835,0
1620713844745,169095,,1827,0
1620713844745,169116,,1827,0
1620713844745,169136,,1831,0
1620713844745,169156,,1861,0
1620713844745,169176,,1911,0
1620713844745,169196,,2003,0
1620713844745,169216,,2162,0
1620713845252,169237,,2347,0
1620713845252,169257,,2545,0
1620713845252,169277,,2669,0
1620713845252,169297,,2554,0
1620713845252,169317,,2330,0
1620713845252,169338,,2128,0
1620713845252,169358,,1978,0
1620713845252,169378,,1902,0
1620713845252,169398,,1837,0
1620713845252,169418,,1797,0
1620713845252,169438,,1772,1
1620713845252,169458,,1762,1
1620713845252,169478,,1808,1
1620713845252,169498,,1823,1
1620713845252,169518,,1844,1
1620713845252,169538,,1872,1
1620713845252,169559,,1882,1
1620713845252,169579,,1941,1
1620713845252,169599,,1933,1
1620713845252,169619,,1904,1
1620713845252,169639,,1872,1
1620713845252,169659,,1808,1
1620713845252,169679,,1865,1
1620713845252,169699,,1824,1
1620713845252,169719,,1793,1
1620713845766,169739,,1785,1
1620713845766,169759,,1890,1
1620713845766,169780,,1963,1
1620713845766,169800,,1970,1
1620713845766,169820,,1859,1
1620713845766,169840,,1774,1
1620713845766,169860,,1704,1
1620713845766,169880,,1748,1
1620713845766,169900,,1744,1
1620713845766,169920,,1725,1
1620713845766,169940,,1744,1
1620713845766,169960,,1790,1
1620713845766,169980,,1881,1
1620713845766,170001,,1954,1
1620713845766,170021,,2038,1
1620713845766,170041,,2151,1
1620713845766,170061,,2256,1
1620713845766,170081,,2336,1
1620713845766,170101,,2333,1
1620713845766,170121,,2266,1
1620713845766,170141,,2173,1
1620713845766,170161,,2071,1
1620713845766,170181,,2017,1
1620713845766,170201,,1975,1
1620713845766,170222,,1936,1
1620713846334,170242,,1926,1
1620713846334,170262,,2034,1
1620713846334,170282,,2135,1
1620713846334,170302,,2074,1
1620713846334,170322,,1939,1
1620713846334,170342,,1843,1
1620713846334,170362,,1790,1
1620713846334,170382,,1761,1
1620713846334,170402,,1763,1
1620713846334,170422,,1713,1
1620713846334,170443,,1654,0
1620713846334,170463,,1619,0
1620713846334,170483,,1607,0
1620713846334,170503,,1648,0
1620713846334,170523,,1680,0
1620713846334,170543,,1751,0
1620713846334,170563,,1852,0
1620713846334,170583,,1943,0
1620713846334,170603,,2058,0
1620713846334,170623,,2096,0
1620713846334,170643,,2112,0
1620713846334,170664,,2106,0
1620713846334,170684,,2060,0
1620713846334,170704,,2054,0
1620713846334,170724,,1973,0
1620713846760,170745,,1879,0
1620713846760,170765,,1890,0
1620713846760,170785,,1889,0
1620713846760,170805,,1858,0
1620713846760,170825,,1799,0
1620713846760,170845,,1840,0
1620713846760,170865,,1987,0
1620713846760,170886,,2143,0
1620713846760,170906,,2318,0
1620713846760,170926,,2341,0
1620713846760,170946,,2288,0
1620713846760,170966,,2192,0
1620713846760,170986,,2079,0
1620713846760,171006,,2001,0
1620713846760,171026,,1913,0
1620713846760,171046,,1819,0
1620713846760,171066,,1729,0
1620713846760,171086,,1681,0
1620713846760,171107,,1708,0
1620713846760,171127,,1753,0
1620713846760,171147,,1823,0
1620713846760,171167,,1898,0
1620713846760,171187,,1969,0
1620713846760,171207,,2055,0
1620713846760,171227,,2077,0
1620713847261,171247,,2065,0
1620713847261,171267,,2115,0
1620713847261,171287,,2146,0
1620713847261,171307,,2043,0
1620713847261,171328,,1855,0
1620713847261,171348,,1712,0
1620713847261,171368,,1619,0
1620713847261,171388,,1583,0
1620713847261,171408,,1602,0
1620713847261,171428,,1647,0
1620713847261,171448,,1680,0
1620713847261,171468,,1730,0
1620713847261,171488,,1789,0
1620713847261,171508,,1840,0
1620713847261,171528,,1906,0
1620713847261,171549,,1936,0
1620713847261,171569,,1948,0
1620713847261,171589,,2007,0
1620713847261,171609,,2117,0
1620713847261,171629,,2202,0
1620713847261,171649,,2231,0
1620713847261,171669,,2256,0
1620713847261,171689,,2243,0
1620713847261,171709,,2209,0
1620713847261,171729,,2287,0
1620713847767,171749,,2380,0
1620713847767,171770,,2506,0
1620713847767,171790,,2514,0
1620713847767,171810,,2294,0
1620713847767,171830,,2099,0
1620713847767,171850,,1856,0
1620713847767,171870,,1729,0
1620713847767,171890,,1687,0
1620713847767,171910,,1676,0
1620713847767,171930,,1791,0
1620713847767,171950,,1839,0
1620713847767,171970,,1840,0
1620713847767,171991,,1830,0
1620713847767,172011,,1793,0
1620713847767,172031,,1842,0
1620713847767,172051,,1847,0
1620713847767,172071,,1857,0
1620713847767,172091,,1863,0
1620713847767,172111,,1858,0
1620713847767,172131,,1886,0
1620713847767,172151,,1866,0
1620713847767,172171,,1843,0
1620713847767,172191,,1821,0
1620713847767,172212,,1789,0
1620713847767,172232,,1775,0
1620713848270,172253,,1739,0
1620713848270,172273,,1823,0
1620713848270,172293,,1907,0
1620713848270,172313,,1890,0
1620713848270,172333,,1898,0
1620713848270,172353,,1983,0
1620713848270,172373,,2101,0
1620713848270,172393,,2225,0
1620713848270,172413,,2289,0
1620713848270,172434,,2313,0
1620713848270,172454,,2275,0
1620713848270,172474,,2179,0
1620713848270,172494,,2087,0
1620713848270,172514,,1968,0
1620713848270,172534,,1889,0
1620713848270,172554,,1829,0
1620713848270,172574,,1756,0
1620713848270,172594,,1712,0
1620713848270,172614,,1699,0
1620713848270,172634,,1712,0
1620713848270,172655,,1782,0
1620713848270,172675,,1794,0
1620713848270,172695,,1798,0
1620713848270,172715,,1802,0
1620713848270,172735,,1806,0
1620713848778,172755,,1839,0
1620713848778,172775,,1926,0
1620713848778,172795,,2015,0
1620713848778,172815,,1947,0
1620713848778,172835,,1821,0
1620713848778,172855,,1797,0
1620713848778,172876,,1751,0
1620713848778,172896,,1734,0
1620713848778,172916,,1744,0
1620713848778,172936,,1744,0
1620713848778,172956,,1839,0
1620713848778,172976,,1854,0
1620713848778,172996,,1861,0
1620713848778,173016,,1870,0
1620713848778,173036,,1853,0
1620713848778,173057,,1951,0
1620713848778,173077,,2038,0
1620713848778,173098,,2169,0
1620713848778,173118,,2271,0
1620713848778,173138,,2283,0
1620713848778,173158,,2308,0
1620713848778,173178,,2230,0
1620713848778,173198,,2111,0
1620713848778,173218,,2011,0
1620713848778,173238,,1919,0
1620713849274,173258,,1886,0
1620713849274,173278,,1951,0
1620713849274,173298,,1981,0
1620713849274,173319,,1955,0
1620713849274,173339,,1846,0
1620713849274,173359,,1805,0
1620713849274,173379,,1791,0
1620713849274,173399,,1793,0
1620713849274,173419,,1815,0
1620713849274,173439,,1852,0
1620713849274,173459,,1909,0
1620713849274,173479,,1930,0
1620713849274,173499,,1922,0
1620713849274,173519,,1902,0
1620713849274,173540,,1877,0
1620713849274,173560,,1892,0
1620713849274,173580,,1925,0
1620713849274,173600,,1902,0
1620713849274,173620,,1880,0
1620713849274,173640,,1863,0
1620713849274,173660,,1872,0
1620713849274,173680,,1881,0
1620713849274,173700,,1873,0
1620713849274,173720,,1907,0
1620713849274,173740,,1993,0
1620713849777,173760,,2112,0
1620713849777,173780,,2320,0
1620713849777,173800,,2485,0
1620713849777,173820,,2474,0
1620713849777,173840,,2307,0
1620713849777,173860,,2131,0
1620713849777,173880,,2022,0
1620713849777,173900,,1904,0
1620713849777,173920,,1819,0
1620713849777,173940,,1775,0
1620713849777,173960,,1741,0
1620713849777,173981,,1797,0
1620713849777,174001,,1809,0
1620713849777,174021,,1837,0
1620713849777,174041,,1871,0
1620713849777,174061,,1877,0
1620713849777,174081,,1974,0
1620713849777,174101,,1979,0
1620713849777,174121,,1964,0
1620713849777,174141,,1939,0
1620713849777,174161,,1895,0
1620713849777,174181,,1924,0
1620713849777,174202,,1892,0
1620713849777,174222,,1861,0
1620713849777,174242,,1853,0
1620713850330,174262,,1856,0
1620713850330,174282,,1954,0
1620713850330,174302,,2047,0
1620713850330,174322,,2000,0
1620713850330,174342,,1903,0
1620713850330,174362,,1881,0
1620713850330,174382,,1987,0
1620713850330,174402,,2126,0
1620713850330,174423,,2241,0
1620713850330,174443,,2300,0
1620713850330,174463,,2294,0
1620713850330,174483,,2224,0
1620713850330,174503,,2243,0
1620713850330,174523,,2213,0
1620713850330,174543,,2145,0
1620713850330,174563,,2064,0
1620713850330,174583,,1999,0
1620713850330,174603,,1818,0
1620713850330,174623,,1685,0
1620713850330,174644,,1626,0
1620713850330,174664,,1638,0
1620713850330,174684,,1710,0
1620713850330,174704,,1787,0
1620713850330,174724,,1843,0
1620713850330,174744,,1875,0
1620713850785,174764,,1917,0
1620713850785,174784,,2033,0
1620713850785,174804,,2117,0
1620713850785,174824,,2035,0
1620713850785,174844,,1887,0
1620713850785,174865,,1776,0
1620713850785,174885,,1702,0
1620713850785,174905,,1789,0
1620713850785,174925,,1777,0
1620713850785,174945,,1776,0
1620713850785,174965,,1786,0
1620713850785,174985,,1776,0
1620713850785,175005,,1860,0
1620713850785,175025,,1916,0
1620713850785,175045,,2026,0
1620713850785,175065,,2171,0
1620713850785,175086,,2298,0
1620713850785,175106,,2441,0
1620713850785,175126,,2441,0
1620713850785,175146,,2367,0
1620713850785,175166,,2269,0
1620713850785,175186,,2128,0
1620713850785,175206,,2086,0
1620713850785,175226,,2003,0
1620713850785,175246,,1936,0
1620713851284,175267,,1873,0
1620713851284,175287,,1940,0
1620713851284,175308,,2003,0
1620713851284,175328,,1940,0
1620713851284,175348,,1842,0
1620713851284,175368,,1794,0
1620713851284,175388,,1788,0
1620713851284,175408,,1854,0
1620713851284,175428,,1879,0
1620713851284,175448,,1898,1
1620713851284,175468,,1906,1
1620713851284,175488,,1911,1
1620713851284,175508,,1933,1
1620713851284,175529,,1916,1
1620713851284,175549,,1883,1
1620713851284,175569,,1853,1
1620713851284,175589,,1846,1
1620713851284,175609,,1853,1
1620713851284,175629,,1959,1
1620713851284,175649,,2033,1
1620713851284,175669,,2061,1
1620713851284,175689,,2038,1
1620713851284,175709,,2042,1
1620713851284,175729,,1930,1
1620713851284,175750,,1865,1
1620713851789,175771,,1936,1
1620713851789,175791,,2160,1
1620713851789,175811,,2416,1
1620713851789,175831,,2421,1
1620713851789,175851,,2304,1
1620713851789,175871,,2182,1
1620713851789,175891,,2070,1
1620713851789,175911,,1989,1
1620713851789,175931,,1959,1
1620713851789,175951,,1914,1
1620713851789,175972,,1877,1
1620713851789,175992,,1845,1
1620713851789,176012,,1833,1
1620713851789,176032,,1857,1
1620713851789,176052,,1856,1
1620713851789,176072,,1869,1
1620713851789,176092,,1885,1
1620713851789,176112,,1894,1
1620713851789,176132,,1952,1
1620713851789,176152,,1947,1
1620713851789,176172,,1929,1
1620713851789,176193,,1907,1
1620713851789,176213,,1870,1
1620713851789,176233,,1898,1
1620713851789,176253,,1869,1
1620713852293,176273,,1839,1
1620713852293,176293,,1921,1
1620713852293,176313,,1989,1
1620713852293,176333,,1988,1
1620713852293,176353,,1860,1
1620713852293,176373,,1776,1
1620713852293,176393,,1737,1
1620713852293,176414,,1729,1
1620713852293,176434,,1865,1
1620713852293,176454,,2015,1
1620713852293,176474,,2188,1
1620713852293,176494,,2321,1
1620713852293,176514,,2379,1
1620713852293,176534,,2401,1
1620713852293,176554,,2336,1
1620713852293,176574,,2213,1
1620713852293,176594,,2109,1
1620713852293,176614,,2016,1
1620713852293,176634,,1970,1
1620713852293,176654,,1921,1
1620713852293,176674,,1861,1
1620713852293,176694,,1808,1
1620713852293,176714,,1787,1
1620713852293,176734,,1808,1
1620713852293,176754,,1840,1
1620713852787,176774,,1853,1
1620713852787,176794,,1977,1
1620713852787,176814,,2095,1
1620713852787,176834,,2061,1
1620713852787,176855,,1943,1
1620713852787,176875,,1843,1
1620713852787,176895,,1788,1
1620713852787,176915,,1755,1
1620713852787,176935,,1747,1
1620713852787,176955,,1779,1
1620713852787,176975,,1783,1
1620713852787,176995,,1785,1
1620713852787,177015,,1798,1
1620713852787,177035,,1807,1
1620713852787,177055,,1863,1
1620713852787,177076,,1865,1
1620713852787,177096,,1857,1
1620713852787,177116,,1847,1
1620713852787,177136,,1846,1
1620713852787,177156,,1931,1
1620713852787,177176,,2030,1
1620713852787,177196,,2167,1
1620713852787,177216,,2320,1
1620713852787,177236,,2377,1
1620713852787,177256,,2448,1
1620713853286,177277,,2391,1
1620713853286,177298,,2380,1
1620713853286,177318,,2353,1
1620713853286,177338,,2167,1
1620713853286,177358,,2022,1
1620713853286,177378,,1872,1
1620713853286,177398,,1775,1
1620713853286,177418,,1718,1
1620713853286,177438,,1682,1
1620713853286,177458,,1760,1
1620713853286,177478,,1804,1
1620713853286,177498,,1846,1
1620713853286,177519,,1891,1
1620713853286,177539,,1918,1
1620713853286,177559,,1970,1
1620713853286,177579,,1968,1
1620713853286,177599,,1937,1
1620713853286,177619,,1893,1
1620713853286,177639,,1858,1
1620713853286,177659,,1867,1
1620713853286,177679,,1855,1
1620713853286,177699,,1839,1
1620713853286,177719,,1825,1
1620713853286,177740,,1825,1
1620713853286,177760,,1857,1
1620713853791,177781,,1882,1
1620713853791,177801,,1977,1
1620713853791,177821,,2069,1
1620713853791,177841,,2000,1
1620713853791,177861,,1902,1
1620713853791,177881,,1841,1
1620713853791,177901,,1783,1
1620713853791,177921,,1776,1
1620713853791,177941,,1843,1
1620713853791,177962,,2003,1
1620713853791,177982,,2197,1
1620713853791,178002,,2327,1
1620713853791,178022,,2400,1
1620713853791,178042,,2391,1
1620713853791,178062,,2333,1
1620713853791,178082,,2256,1
1620713853791,178102,,2143,1
1620713853791,178122,,2034,1
1620713853791,178142,,1964,1
1620713853791,178162,,1906,1
1620713853791,178183,,1891,1
1620713853791,178203,,1845,1
1620713853791,178223,,1821,1
1620713853791,178243,,1825,1
1620713853791,178263,,1839,1
1620713854298,178283,,1910,1
1620713854298,178303,,2037,1
1620713854298,178323,,2141,1
1620713854298,178343,,2075,1
1620713854298,178363,,1920,1
1620713854298,178383,,1881,1
1620713854298,178404,,1797,1
1620713854298,178424,,1761,1
1620713854298,178444,,1753,1
1620713854298,178464,,1742,1
1620713854298,178484,,1825,1
1620713854298,178504,,1839,1
1620713854298,178524,,1838,1
1620713854298,178544,,1840,1
1620713854298,178564,,1837,1
1620713854298,178584,,1925,1
1620713854298,178604,,1936,1
1620713854298,178625,,1904,1
1620713854298,178645,,1877,1
1620713854298,178665,,1862,1
1620713854298,178685,,1929,1
1620713854298,178705,,2019,1
1620713854298,178725,,2154,1
1620713854298,178745,,2301,1
1620713854298,178765,,2409,1
1620713854801,178785,,2453,1
1620713854801,178805,,2522,1
1620713854801,178825,,2501,1
1620713854801,178846,,2381,1
1620713854801,178866,,2147,1
1620713854801,178886,,1998,1
1620713854801,178906,,1889,1
1620713854801,178926,,1821,1
1620713854801,178946,,1791,1
1620713854801,178966,,1781,1
1620713854801,178986,,1814,1
1620713854801,179006,,1849,1
1620713854801,179026,,1865,1
1620713854801,179046,,1889,1
1620713854801,179067,,1920,1
1620713854801,179087,,1950,1
1620713854801,179107,,1966,1
1620713854801,179127,,1936,1
1620713854801,179147,,1903,1
1620713854801,179167,,1874,1
1620713854801,179187,,1851,1
1620713854801,179207,,1851,1
1620713854801,179227,,1827,1
1620713854801,179247,,1805,1
1620713854801,179267,,1792,1
1620713855360,179287,,1789,1
1620713855360,179307,,1904,1
1620713855360,179327,,2000,1
1620713855360,179347,,1989,1
1620713855360,179367,,1872,1
1620713855360,179387,,1763,1
1620713855360,179407,,1777,1
1620713855360,179427,,1766,1
1620713855360,179447,,1779,1
1620713855360,179467,,1811,1
1620713855360,179487,,1858,1
1620713855360,179508,,2060,1
1620713855360,179528,,2195,1
1620713855360,179548,,2326,1
1620713855360,179568,,2387,1
1620713855360,179588,,2358,1
1620713855360,179608,,2352,1
1620713855360,179628,,2256,1
1620713855360,179648,,2149,1
1620713855360,179668,,2036,1
1620713855360,179688,,1963,1
1620713855360,179708,,1922,1
1620713855360,179729,,1881,1
1620713855360,179749,,1841,1
1620713855360,179769,,1819,1
1620713855816,179789,,1814,1
1620713855816,179809,,1945,1
1620713855816,179829,,2064,1
1620713855816,179849,,2030,1
1620713855816,179869,,1936,1
1620713855816,179889,,1867,1
1620713855816,179909,,1847,1
1620713855816,179929,,1840,1
1620713855816,179950,,1822,1
1620713855816,179970,,1808,1
1620713855816,179990,,1795,1
1620713855816,180010,,1818,1
1620713855816,180030,,1839,1
1620713855816,180050,,1826,1
1620713855816,180070,,1821,1
1620713855816,180090,,1820,1
1620713855816,180110,,1834,1
1620713855816,180130,,1851,1
1620713855816,180150,,1847,1
1620713855816,180171,,1843,1
1620713855816,180191,,1838,1
1620713855816,180211,,1831,1
1620713855816,180231,,1867,1
1620713855816,180251,,1875,1
1620713855816,180271,,1921,1
1620713856306,180292,,2057,1
1620713856306,180312,,2287,1
1620713856306,180332,,2500,1
1620713856306,180352,,2506,1
1620713856306,180372,,2379,1
1620713856306,180393,,2224,1
1620713856306,180413,,2061,1
1620713856306,180433,,2031,1
1620713856306,180453,,1949,1
1620713856306,180473,,1890,1
1620713856306,180493,,1853,1
1620713856306,180513,,1804,1
1620713856306,180533,,1842,1
1620713856306,180553,,1827,1
1620713856306,180573,,1815,1
1620713856306,180593,,1829,1
1620713856306,180614,,1824,1
1620713856306,180634,,1907,1
1620713856306,180654,,1920,1
1620713856306,180674,,1904,1
1620713856306,180694,,1875,1
1620713856306,180714,,1842,1
1620713856306,180734,,1849,1
1620713856306,180754,,1809,1
1620713856306,180774,,1776,1
1620713856810,180795,,1755,1
1620713856810,180815,,1858,1
1620713856810,180836,,1957,1
1620713856810,180856,,1902,1
1620713856810,180876,,1775,1
1620713856810,180896,,1710,1
1620713856810,180916,,1685,1
1620713856810,180936,,1735,1
1620713856810,180956,,1765,1
1620713856810,180976,,1776,1
1620713856810,180996,,1787,1
1620713856810,181016,,1805,1
1620713856810,181036,,1853,1
1620713856810,181057,,1941,1
1620713856810,181077,,2042,1
1620713856810,181097,,2161,1
1620713856810,181117,,2267,1
1620713856810,181137,,2331,1
1620713856810,181157,,2326,1
1620713856810,181177,,2256,1
1620713856810,181197,,2161,1
1620713856810,181217,,2070,1
1620713856810,181237,,2021,1
1620713856810,181257,,1991,1
1620713856810,181278,,1933,1
1620713857330,181299,,1887,1
1620713857330,181319,,1968,1
1620713857330,181339,,2035,1
1620713857330,181359,,1983,1
1620713857330,181379,,1865,1
1620713857330,181399,,1798,1
1620713857330,181419,,1791,1
1620713857330,181439,,1818,1
1620713857330,181459,,1874,1
1620713857330,181479,,1879,1
1620713857330,181500,,1885,1
1620713857330,181520,,1882,1
1620713857330,181540,,1866,1
1620713857330,181560,,1883,1
1620713857330,181580,,1855,1
1620713857330,181600,,1835,1
1620713857330,181620,,1824,1
1620713857330,181640,,1797,1
1620713857330,181660,,1849,1
1620713857330,181680,,1850,1
1620713857330,181700,,1846,1
1620713857330,181721,,1852,1
1620713857330,181741,,1835,1
1620713857330,181761,,1898,1
1620713857330,181781,,1885,1
1620713857893,181801,,1889,1
1620713857893,181821,,2029,1
1620713857893,181841,,2185,1
1620713857893,181861,,2293,1
1620713857893,181881,,2283,1
1620713857893,181901,,2252,1
1620713857893,181921,,2209,1
1620713857893,181942,,2129,1
1620713857893,181962,,2101,1
1620713857893,181982,,2038,1
1620713857893,182002,,1976,1
1620713857893,182022,,1936,1
1620713857893,182042,,1910,1
1620713857893,182062,,1904,1
1620713857893,182082,,1883,1
1620713857893,182102,,1856,1
1620713857893,182122,,1844,1
1620713857893,182142,,1855,1
1620713857893,182163,,1897,1
1620713857893,182183,,1920,1
1620713857893,182203,,1918,1
1620713857893,182223,,1915,1
1620713857893,182243,,1904,1
1620713857893,182263,,1914,1
1620713857893,182283,,1902,1
1620713858314,182304,,1883,1
1620713858314,182324,,1957,1
1620713858314,182344,,2021,1
1620713858314,182364,,1943,1
1620713858314,182385,,1831,1
1620713858314,182405,,1743,1
1620713858314,182425,,1706,1
1620713858314,182445,,1710,1
1620713858314,182465,,1707,1
1620713858314,182485,,1855,1
1620713858314,182505,,1966,1
1620713858314,182525,,2037,1
1620713858314,182545,,2090,1
1620713858314,182565,,2157,1
1620713858314,182585,,2207,0
1620713858314,182606,,2197,0
1620713858314,182626,,2217,0
1620713858314,182646,,2237,0
1620713858314,182666,,2211,0
1620713858314,182686,,2215,0
1620713858314,182706,,2144,0
1620713858314,182726,,2067,0
1620713858314,182746,,1995,0
1620713858314,182766,,1914,0
1620713858314,182786,,1911,0
1620713858855,182806,,1855,0
1620713858855,182827,,1904,0
1620713858855,182847,,1957,0
1620713858855,182867,,1840,0
1620713858855,182887,,1807,0
1620713858855,182907,,1766,0
1620713858855,182927,,1774,0
1620713858855,182947,,1813,0
1620713858855,182967,,1840,0
1620713858855,182987,,1914,0
1620713858855,183007,,1930,0
1620713858855,183027,,1933,0
1620713858855,183048,,1923,0
1620713858855,183068,,1902,0
1620713858855,183088,,1918,0
1620713858855,183108,,1905,0
1620713858855,183128,,1881,0
1620713858855,183148,,1875,0
1620713858855,183168,,1876,0
1620713858855,183188,,1903,0
1620713858855,183208,,1899,0
1620713858855,183228,,1885,0
1620713858855,183248,,1872,0
1620713858855,183269,,1863,0
1620713858855,183289,,1879,0
1620713859328,183310,,1936,0
1620713859328,183330,,2092,0
1620713859328,183350,,2281,0
1620713859328,183370,,2339,0
1620713859328,183390,,2340,0
1620713859328,183410,,2298,0
1620713859328,183430,,2220,0
1620713859328,183450,,2128,0
1620713859328,183470,,2056,0
1620713859328,183491,,2007,0
1620713859328,183511,,1987,0
1620713859328,183531,,1953,0
1620713859328,183551,,1922,0
1620713859328,183571,,1891,0
1620713859328,183591,,1861,0
1620713859328,183611,,1910,0
1620713859328,183631,,1878,0
1620713859328,183651,,1859,0
1620713859328,183671,,1863,0
1620713859328,183691,,1873,0
1620713859328,183712,,1919,0
1620713859328,183732,,1921,0
1620713859328,183752,,1911,0
1620713859328,183772,,1899,0
1620713859328,183792,,1877,0
1620713859825,183812,,1899,0
1620713859825,183832,,1977,0
1620713859825,183852,,2042,0
1620713859825,183872,,1959,0
1620713859825,183892,,1808,0
1620713859825,183912,,1788,0
1620713859825,183933,,1742,0
1620713859825,183953,,1730,0
1620713859825,183973,,1744,0
1620713859825,183993,,1743,0
1620713859825,184013,,1830,0
1620713859825,184033,,1853,0
1620713859825,184053,,1862,0
1620713859825,184073,,1890,0
1620713859825,184093,,1935,0
1620713859825,184113,,2096,0
1620713859825,184133,,2234,0
1620713859825,184154,,2335,0
1620713859825,184174,,2366,0
1620713859825,184194,,2320,0
1620713859825,184214,,2295,0
1620713859825,184234,,2205,0
1620713859825,184254,,2105,0
1620713859825,184274,,2016,0
1620713859825,184294,,1962,0
1620713860332,184314,,1917,0
1620713860332,184334,,1979,0
1620713860332,184354,,2035,0
1620713860332,184375,,1945,0
1620713860332,184395,,1821,0
1620713860332,184415,,1776,0
1620713860332,184435,,1773,0
1620713860332,184455,,1780,0
1620713860332,184475,,1801,0
1620713860332,184495,,1839,0
1620713860332,184515,,1872,0
1620713860332,184535,,1913,0
1620713860332,184555,,1909,0
1620713860332,184575,,1890,0
1620713860332,184596,,1867,0
1620713860332,184616,,1858,0
1620713860332,184636,,1859,0
1620713860332,184656,,1842,0
1620713860332,184676,,1831,0
1620713860332,184696,,1829,0
1620713860332,184716,,1833,0
1620713860332,184736,,1872,0
1620713860332,184756,,1872,0
1620713860332,184776,,1872,0
1620713860332,184796,,1869,0
1620713860829,184816,,1870,0
1620713860829,184836,,1959,0
1620713860829,184856,,2058,0
1620713860829,184876,,2017,0
1620713860829,184896,,1910,0
1620713860829,184916,,1835,0
1620713860829,184936,,1933,0
1620713860829,184956,,2023,0
1620713860829,184976,,2139,0
1620713860829,184996,,2252,0
1620713860829,185016,,2287,0
1620713860829,185037,,2334,0
1620713860829,185057,,2273,0
1620713860829,185077,,2176,0
1620713860829,185097,,2089,0
1620713860829,185117,,1997,0
1620713860829,185137,,1971,1
1620713860829,185157,,1930,1
1620713860829,185177,,1881,1
1620713860829,185197,,1855,1
1620713860829,185217,,1839,1
1620713860829,185237,,1865,1
1620713860829,185258,,1877,1
1620713860829,185278,,1891,1
1620713860829,185298,,1905,1
1620713854298,178544,,1840,1
1620713854298,178564,,1837,1
1620713854298,178584,,1925,1
1620713854298,178604,,1936,1
1620713854298,178625,,1904,1
1620713854298,178645,,1877,1
1620713854298,178665,,1862,1
1620713854298,178685,,1929,1
1620713854298,178705,,2019,1
1620713854298,178725,,2154,1
1620713854298,178745,,2301,1
1620713854298,178765,,2409,1
1620713854801,178785,,2453,1
1620713854801,178805,,2522,1
1620713854801,178825,,2501,1
1620713854801,178846,,2381,1
1620713854801,178866,,2147,1
1620713854801,178886,,1998,1
1620713854801,178906,,1889,1
1620713854801,178926,,1821,1
1620713854801,178946,,1791,1
1620713854801,178966,,1781,1
1620713854801,178986,,1814,1
1620713854801,179006,,1849,1
1620713854801,179026,,1865,1
1620713854801,179046,,1889,1
1620713854801,179067,,1920,1
1620713854801,179087,,1950,1
1620713854801,179107,,1966,1
1620713854801,179127,,1936,1
1620713854801,179147,,1903,1
1620713854801,179167,,1874,1
1620713854801,179187,,1851,1
1620713854801,179207,,1851,1
1620713854801,179227,,1827,1
1620713854801,179247,,1805,1
1620713854801,179267,,1792,1
1620713855360,179287,,1789,1
1620713855360,179307,,1904,1
1620713855360,179327,,2000,1
1620713855360,179347,,1989,1
1620713855360,179367,,1872,1
1620713855360,179387,,1763,1
1620713855360,179407,,1777,1
1620713855360,179427,,1766,1
1620713855360,179447,,1779,1
1620713855360,179467,,1811,1
1620713855360,179487,,1858,1
1620713855360,179508,,2060,1
1620713855360,179528,,2195,1
1620713855360,179548,,2326,1
1620713855360,179568,,2387,1
1620713855360,179588,,2358,1
1620713855360,179608,,2352,1
1620713855360,179628,,2256,1
1620713855360,179648,,2149,1
1620713855360,179668,,2036,1
1620713855360,179688,,1963,1
1620713855360,179708,,1922,1
1620713855360,179729,,1881,1
1620713855360,179749,,1841,1
1620713855360,179769,,1819,1
1620713855816,179789,,1814,1
1620713855816,179809,,1945,1
1620713855816,179829,,2064,1
1620713855816,179849,,2030,1
1620713855816,179869,,1936,1
1620713855816,179889,,1867,1
1620713855816,179909,,1847,1
1620713855816,179929,,1840,1
1620713855816,179950,,1822,1
1620713855816,179970,,1808,1
1620713855816,179990,,1795,1
1620713855816,180010,,1818,1
1620713855816,180030,,1839,1
1620713855816,180050,,1826,1
1620713855816,180070,,1821,1
1620713855816,180090,,1820,1
1620713855816,180110,,1834,1
1620713855816,180130,,1851,1
1620713855816,180150,,1847,1
1620713855816,180171,,1843,1
1620713855816,180191,,1838,1
1620713855816,180211,,1831,1
1620713855816,180231,,1867,1
1620713855816,180251,,1875,1
1620713855816,180271,,1921,1
1620713856306,180292,,2057,1
1620713856306,180312,,2287,1
1620713856306,180332,,2500,1
1620713856306,180352,,2506,1
1620713856306,180372,,2379,1
1620713856306,180393,,2224,1
1620713856306,180413,,2061,1
1620713856306,180433,,2031,1
1620713856306,180453,,1949,1
1620713856306,180473,,1890,1
1620713856306,180493,,1853,1
1620713856306,180513,,1804,1
1620713856306,180533,,1842,1
1620713856306,180553,,1827,1
1620713856306,180573,,1815,1
1620713856306,180593,,1829,1
1620713856306,180614,,1824,1
1620713856306,180634,,1907,1
1620713856306,180654,,1920,1
1620713856306,180674,,1904,1
1620713856306,180694,,1875,1
1620713856306,180714,,1842,1
1620713856306,180734,,1849,1
1620713856306,180754,,1809,1
1620713856306,180774,,1776,1
1620713856810,180795,,1755,1
1620713856810,180815,,1858,1
1620713856810,180836,,1957,1
1620713856810,180856,,1902,1
1620713856810,180876,,1775,1
1620713856810,180896,,1710,1
1620713856810,180916,,1685,1
1620713856810,180936,,1735,1
1620713856810,180956,,1765,1
1620713856810,180976,,1776,1
1620713856810,180996,,1787,1
1620713856810,181016,,1805,1
1620713856810,181036,,1853,1
1620713856810,181057,,1941,1
1620713856810,181077,,2042,1
1620713856810,181097,,2161,1
1620713856810,181117,,2267,1
1620713856810,181137,,2331,1
1620713856810,181157,,2326,1
1620713856810,181177,,2256,1
1620713856810,181197,,2161,1
1620713856810,181217,,2070,1
1620713856810,181237,,2021,1
1620713856810,181257,,1991,1
1620713856810,181278,,1933,1
1620713857330,181299,,1887,1
1620713857330,181319,,1968,1
1620713857330,181339,,2035,1
1620713857330,181359,,1983,1
1620713857330,181379,,1865,1
1620713857330,181399,,1798,1
1620713857330,181419,,1791,1
1620713857330,181439,,1818,1
1620713857330,181459,,1874,1
1620713857330,181479,,1879,1
1620713857330,181500,,1885,1
1620713857330,181520,,1882,1
1620713857330,181540,,1866,1
1620713857330,181560,,1883,1
1620713857330,181580,,1855,1
1620713857330,181600,,1835,1
1620713857330,181620,,1824,1
1620713857330,181640,,1797,1
1620713857330,181660,,1849,1
1620713857330,181680,,1850,1
1620713857330,181700,,1846,1
1620713857330,181721,,1852,1
1620713857330,181741,,1835,1
1620713857330,181761,,1898,1
1620713857330,181781,,1885,1
1620713857893,181801,,1889,1
1620713857893,181821,,2029,1
1620713857893,181841,,2185,1
1620713857893,181861,,2293,1
1620713857893,181881,,2283,1
1620713857893,181901,,2252,1
1620713857893,181921,,2209,1
1620713857893,181942,,2129,1
1620713857893,181962,,2101,1
1620713857893,181982,,2038,1
1620713857893,182002,,1976,1
1620713857893,182022,,1936,1
1620713857893,182042,,1910,1
1620713857893,182062,,1904,1
1620713857893,182082,,1883,1
1620713857893,182102,,1856,1
1620713857893,182122,,1844,1
1620713857893,182142,,1855,1
1620713857893,182163,,1897,1
1620713857893,182183,,1920,1
1620713857893,182203,,1918,1
1620713857893,182223,,1915,1
1620713857893,182243,,1904,1
1620713857893,182263,,1914,1
1620713857893,182283,,1902,1
1620713858314,182304,,1883,1
1620713858314,182324,,1957,1
1620713858314,182344,,2021,1
1620713858314,182364,,1943,1
1620713858314,182385,,1831,1
1620713858314,182405,,1743,1
1620713858314,182425,,1706,1
1620713858314,182445,,1710,1
1620713858314,182465,,1707,1
1620713858314,182485,,1855,1
1620713858314,182505,,1966,1
1620713858314,182525,,2037,1
1620713858314,182545,,2090,1
1620713858314,182565,,2157,1
1620713858314,182585,,2207,0
1620713858314,182606,,2197,0
1620713858314,182626,,2217,0
1620713858314,182646,,2237,0
1620713858314,182666,,2211,0
1620713858314,182686,,2215,0
1620713858314,182706,,2144,0
1620713858314,182726,,2067,0
1620713858314,182746,,1995,0
1620713858314,182766,,1914,0
1620713858314,182786,,1911,0
1620713858855,182806,,1855,0
1620713858855,182827,,1904,0
1620713858855,182847,,1957,0
1620713858855,182867,,1840,0
1620713858855,182887,,1807,0
1620713858855,182907,,1766,0
1620713858855,182927,,1774,0
1620713858855,182947,,1813,0
1620713858855,182967,,1840,0
1620713858855,182987,,1914,0
1620713858855,183007,,1930,0
1620713858855,183027,,1933,0
1620713858855,183048,,1923,0
1620713858855,183068,,1902,0
1620713858855,183088,,1918,0
1620713858855,183108,,1905,0
1620713858855,183128,,1881,0
1620713858855,183148,,1875,0
1620713858855,183168,,1876,0
1620713858855,183188,,1903,0
1620713858855,183208,,1899,0
1620713858855,183228,,1885,0
1620713858855,183248,,1872,0
1620713858855,183269,,1863,0
1620713858855,183289,,1879,0
1620713859328,183310,,1936,0
1620713859328,183330,,2092,0
1620713859328,183350,,2281,0
1620713859328,183370,,2339,0
1620713859328,183390,,2340,0
1620713859328,183410,,2298,0
1620713859328,183430,,2220,0
1620713859328,183450,,2128,0
1620713859328,183470,,2056,0
1620713859328,183491,,2007,0
1620713859328,183511,,1987,0
1620713859328,183531,,1953,0
1620713859328,183551,,1922,0
1620713859328,183571,,1891,0
1620713859328,183591,,1861,0
1620713859328,183611,,1910,0
1620713859328,183631,,1878,0
1620713859328,183651,,1859,0
1620713859328,183671,,1863,0
1620713859328,183691,,1873,0
1620713859328,183712,,1919,0
1620713859328,183732,,1921,0
1620713859328,183752,,1911,0
1620713859328,183772,,1899,0
1620713859328,183792,,1877,0
1620713859825,183812,,1899,0
1620713859825,183832,,1977,0
1620713859825,183852,,2042,0
1620713859825,183872,,1959,0
1620713859825,183892,,1808,0
1620713859825,183912,,1788,0
1620713859825,183933,,1742,0
1620713859825,183953,,1730,0
1620713859825,183973,,1744,0
1620713859825,183993,,1743,0
1620713859825,184013,,1830,0
1620713859825,184033,,1853,0
1620713859825,184053,,1862,0
1620713859825,184073,,1890,0
1620713859825,184093,,1935,0
1620713859825,184113,,2096,0
1620713859825,184133,,2234,0
1620713859825,184154,,2335,0
1620713859825,184174,,2366,0
1620713859825,184194,,2320,0
1620713859825,184214,,2295,0
1620713859825,184234,,2205,0
1620713859825,184254,,2105,0
1620713859825,184274,,2016,0
1620713859825,184294,,1962,0
1620713860332,184314,,1917,0
1620713860332,184334,,1979,0
1620713860332,184354,,2035,0
1620713860332,184375,,1945,0
1620713860332,184395,,1821,0
1620713860332,184415,,1776,0
1620713860332,184435,,1773,0
1620713860332,184455,,1780,0
1620713860332,184475,,1801,0
1620713860332,184495,,1839,0
1620713860332,184515,,1872,0
1620713860332,184535,,1913,0
1620713860332,184555,,1909,0
1620713860332,184575,,1890,0
1620713860332,184596,,1867,0
1620713860332,184616,,1858,0
1620713860332,184636,,1859,0
1620713860332,184656,,1842,0
1620713860332,184676,,1831,0
1620713860332,184696,,1829,0
1620713860332,184716,,1833,0
1620713860332,184736,,1872,0
1620713860332,184756,,1872,0
1620713860332,184776,,1872,0
1620713860332,184796,,1869,0
1620713860829,184816,,1870,0
1620713860829,184836,,1959,0
1620713860829,184856,,2058,0
1620713860829,184876,,2017,0
1620713860829,184896,,1910,0
1620713860829,184916,,1835,0
1620713860829,184936,,1933,0
1620713860829,184956,,2023,0
1620713860829,184976,,2139,0
1620713860829,184996,,2252,0
1620713860829,185016,,2287,0
1620713860829,185037,,2334,0
1620713860829,185057,,2273,0
1620713860829,185077,,2176,0
1620713860829,185097,,2089,0
1620713860829,185117,,1997,0
1620713860829,185137,,1971,1
1620713860829,185157,,1930,1
1620713860829,185177,,1881,1
1620713860829,185197,,1855,1
1620713860829,185217,,1839,1
1620713860829,185237,,1865,1
1620713860829,185258,,1877,1
1620713860829,185278,,1891,1
1620713860829,185298,,1905,1
1620713861330,185319,,1919,1
1620713861330,185339,,2025,1
1620713861330,185359,,2111,1
1620713861330,185379,,2006,1
1620713861330,185399,,1879,1
1620713861330,185419,,1783,1
1620713861330,185439,,1744,1
1620713861330,185459,,1727,1
1620713861330,185480,,1714,1
1620713861330,185500,,1735,1
1620713861330,185520,,1770,1
1620713861330,185540,,1812,1
1620713861330,185560,,1843,1
1620713861330,185580,,1847,1
1620713861330,185600,,1846,1
1620713861330,185620,,1840,1
1620713861330,185640,,1809,1
1620713861330,185660,,1910,1
1620713861330,185680,,1986,1
1620713861330,185701,,2012,1
1620713861330,185721,,2000,1
1620713861330,185741,,2023,1
1620713861330,185761,,2000,1
1620713861330,185781,,1999,1
1620713861330,185801,,2071,1
1620713861836,185822,,2171,1
1620713861836,185842,,2345,0
1620713861836,185862,,2448,0
1620713861836,185882,,2378,0
1620713861836,185902,,2220,0
1620713861836,185923,,2111,0
1620713861836,185943,,2035,0
1620713861836,185963,,2057,0
1620713861836,185983,,2058,0
1620713861836,186003,,2063,0
1620713861836,186023,,2079,0
1620713861836,186043,,2093,0
1620713861836,186063,,2227,0
1620713861836,186083,,2373,0
1620713861836,186103,,2486,0
1620713861836,186123,,2570,0
1620713861836,186144,,2448,0
1620713861836,186164,,2407,0
1620713861836,186184,,2349,0
1620713861836,186204,,2327,0
1620713861836,186224,,2350,0
1620713861836,186244,,2353,0
1620713861836,186264,,2405,0
1620713861836,186284,,2341,0
1620713861836,186304,,2199,0
1620713862339,186325,,2047,0
1620713862339,186345,,2065,0
1620713862339,186366,,2079,0
1620713862339,186386,,2083,0
1620713862339,186406,,1921,0
1620713862339,186426,,1745,0
1620713862339,186446,,1634,0
1620713862339,186466,,1563,0
1620713862339,186486,,1527,0
1620713862339,186506,,1534,0
1620713862339,186526,,1574,0
1620713862339,186546,,1635,0
1620713862339,186566,,1745,0
1620713862339,186587,,1799,0
1620713862339,186607,,1777,0
1620713862339,186627,,1771,0
1620713862339,186647,,1827,0
1620713862339,186667,,1971,0
1620713862339,186687,,2142,0
1620713862339,186707,,2262,0
1620713862339,186727,,2325,0
1620713862339,186747,,2348,0
1620713862339,186767,,2350,0
1620713862339,186787,,2320,0
1620713862339,186808,,2254,0
1620713862839,186828,,2178,0
1620713862839,186848,,2177,1
1620713862839,186868,,2147,1
1620713862839,186888,,1969,1
1620713862839,186908,,1757,1
1620713862839,186928,,1635,1
1620713862839,186948,,1598,1
1620713862839,186968,,1606,1
1620713862839,186988,,1706,1
1620713862839,187008,,1777,1
1620713862839,187029,,1889,1
1620713862839,187049,,2027,1
1620713862839,187069,,2151,1
1620713862839,187089,,2271,1
1620713862839,187109,,2320,1
1620713862839,187129,,2331,1
1620713862839,187149,,2318,1
1620713862839,187169,,2240,1
1620713862839,187189,,2220,1
1620713862839,187209,,2135,1
1620713862839,187229,,2043,1
1620713862839,187250,,1974,1
1620713862839,187270,,1887,1
1620713862839,187290,,1858,1
1620713862839,187310,,1740,1
1620713863350,187331,,1642,1
1620713863350,187351,,1648,1
1620713863350,187371,,1601,1
1620713863350,187391,,1521,1
1620713863350,187411,,1315,1
1620713863350,187431,,1254,1
1620713863350,187451,,1351,1
1620713863350,187472,,1535,1
1620713863350,187492,,1783,1
1620713863350,187512,,1894,1
1620713863350,187532,,1917,1
1620713863350,187552,,1898,1
1620713863350,187572,,1870,1
1620713863350,187592,,1877,1
1620713863350,187612,,1856,1
1620713863350,187632,,1814,1
1620713863350,187652,,1778,1
1620713863350,187672,,1744,1
1620713863350,187693,,1735,1
1620713863350,187713,,1713,1
1620713863350,187733,,1696,1
1620713863350,187753,,1699,1
1620713863350,187773,,1712,1
1620713863350,187793,,1763,1
1620713863350,187813,,1806,1
1620713863844,187834,,1846,1
1620713863844,187854,,1980,1
1620713863844,187874,,2102,1
1620713863844,187894,,2114,1
1620713863844,187915,,2047,1
1620713863844,187935,,1949,1
1620713863844,187955,,1851,1
1620713863844,187975,,1776,1
1620713863844,187995,,1744,1
1620713863844,188015,,1743,1
1620713863844,188035,,1728,1
1620713863844,188055,,1728,1
1620713863844,188075,,1738,1
1620713863844,188095,,1735,1
1620713863844,188115,,1744,1
1620713863844,188136,,1691,1
1620713863844,188156,,1643,1
1620713863844,188176,,1610,1
1620713863844,188196,,1613,1
1620713863844,188216,,1718,1
1620713863844,188236,,1853,1
1620713863844,188256,,2090,1
1620713863844,188276,,2342,0
1620713863844,188296,,2599,0
1620713863844,188316,,2896,0
1620713864358,188337,,2970,0
1620713864358,188358,,3053,0
1620713864358,188378,,2967,0
1620713864358,188398,,2770,0
1620713864358,188418,,2485,0
1620713864358,188438,,2143,0
1620713864358,188458,,1870,0
1620713864358,188478,,1681,0
1620713864358,188498,,1579,0
1620713864358,188518,,1621,0
1620713864358,188538,,1674,0
1620713864358,188558,,1763,0
1620713864358,188579,,1884,0
1620713864358,188599,,1968,0
1620713864358,188619,,2099,0
1620713864358,188639,,2131,0
1620713864358,188659,,2114,0
1620713864358,188679,,2065,0
1620713864358,188699,,2005,0
1620713864358,188719,,1961,0
1620713864358,188739,,1891,0
1620713864358,188759,,1829,0
1620713864358,188779,,1779,0
1620713864358,188800,,1754,0
1620713864358,188820,,1766,0
1620713850330,174322,,2000,0
1620713850330,174342,,1903,0
1620713850330,174362,,1881,0
1620713850330,174382,,1987,0
1620713850330,174402,,2126,0
1620713850330,174423,,2241,0
1620713850330,174443,,2300,0
1620713850330,174463,,2294,0
1620713850330,174483,,2224,0
1620713850330,174503,,2243,0
1620713850330,174523,,2213,0
1620713850330,174543,,2145,0
1620713850330,174563,,2064,0
1620713850330,174583,,1999,0
1620713850330,174603,,1818,0
1620713850330,174623,,1685,0
1620713850330,174644,,1626,0
1620713850330,174664,,1638,0
1620713850330,174684,,1710,0
1620713850330,174704,,1787,0
1620713850330,174724,,1843,0
1620713850330,174744,,1875,0
1620713850785,174764,,1917,0
1620713850785,174784,,2033,0
1620713850785,174804,,2117,0
1620713850785,174824,,2035,0
1620713850785,174844,,1887,0
1620713850785,174865,,1776,0
1620713850785,174885,,1702,0
1620713850785,174905,,1789,0
1620713850785,174925,,1777,0
1620713850785,174945,,1776,0
1620713850785,174965,,1786,0
1620713850785,174985,,1776,0
1620713850785,175005,,1860,0
1620713850785,175025,,1916,0
1620713850785,175045,,2026,0
1620713850785,175065,,2171,0
1620713850785,175086,,2298,0
1620713850785,175106,,2441,0
1620713850785,175126,,2441,0
1620713850785,175146,,2367,0
1620713850785,175166,,2269,0
1620713850785,175186,,2128,0
1620713850785,175206,,2086,0
1620713850785,175226,,2003,0
1620713850785,175246,,1936,0
1620713851284,175267,,1873,0
1620713851284,175287,,1940,0
1620713851284,175308,,2003,0
1620713851284,175328,,1940,0
1620713851284,175348,,1842,0
1620713851284,175368,,1794,0
1620713851284,175388,,1788,0
1620713851284,175408,,1854,0
1620713851284,175428,,1879,0
1620713851284,175448,,1898,1
1620713851284,175468,,1906,1
1620713851284,175488,,1911,1
1620713851284,175508,,1933,1
1620713851284,175529,,1916,1
1620713851284,175549,,1883,1
1620713851284,175569,,1853,1
1620713851284,175589,,1846,1
1620713851284,175609,,1853,1
1620713851284,175629,,1959,1
1620713851284,175649,,2033,1
1620713851284,175669,,2061,1
1620713851284,175689,,2038,1
1620713851284,175709,,2042,1
1620713851284,175729,,1930,1
1620713851284,175750,,1865,1
1620713851789,175771,,1936,1
1620713851789,175791,,2160,1
1620713851789,175811,,2416,1
1620713851789,175831,,2421,1
1620713851789,175851,,2304,1
1620713851789,175871,,2182,1
1620713851789,175891,,2070,1
1620713851789,175911,,1989,1
1620713851789,175931,,1959,1
1620713851789,175951,,1914,1
1620713851789,175972,,1877,1
1620713851789,175992,,1845,1
1620713851789,176012,,1833,1
1620713851789,176032,,1857,1
1620713851789,176052,,1856,1
1620713851789,176072,,1869,1
1620713851789,176092,,1885,1
1620713851789,176112,,1894,1
1620713851789,176132,,1952,1
1620713851789,176152,,1947,1
1620713851789,176172,,1929,1
1620713851789,176193,,1907,1
1620713851789,176213,,1870,1
1620713851789,176233,,1898,1
1620713851789,176253,,1869,1
1620713852293,176273,,1839,1
1620713852293,176293,,1921,1
1620713852293,176313,,1989,1
1620713852293,176333,,1988,1
1620713852293,176353,,1860,1
1620713852293,176373,,1776,1
1620713852293,176393,,1737,1
1620713852293,176414,,1729,1
1620713852293,176434,,1865,1
1620713852293,176454,,2015,1
1620713852293,176474,,2188,1
1620713852293,176494,,2321,1
1620713852293,176514,,2379,1
1620713852293,176534,,2401,1
1620713852293,176554,,2336,1
1620713852293,176574,,2213,1
1620713852293,176594,,2109,1
1620713852293,176614,,2016,1
1620713852293,176634,,1970,1
1620713852293,176654,,1921,1
1620713852293,176674,,1861,1
1620713852293,176694,,1808,1
1620713852293,176714,,1787,1
1620713852293,176734,,1808,1
1620713852293,176754,,1840,1
1620713852787,176774,,1853,1
1620713852787,176794,,1977,1
1620713852787,176814,,2095,1
1620713852787,176834,,2061,1
1620713852787,176855,,1943,1
1620713852787,176875,,1843,1
1620713852787,176895,,1788,1
1620713852787,176915,,1755,1
1620713852787,176935,,1747,1
1620713852787,176955,,1779,1
1620713852787,176975,,1783,1
1620713852787,176995,,1785,1
1620713852787,177015,,1798,1
1620713852787,177035,,1807,1
1620713852787,177055,,1863,1
1620713852787,177076,,1865,1
1620713852787,177096,,1857,1
1620713852787,177116,,1847,1
1620713852787,177136,,1846,1
1620713852787,177156,,1931,1
1620713852787,177176,,2030,1
1620713852787,177196,,2167,1
1620713852787,177216,,2320,1
1620713852787,177236,,2377,1
1620713852787,177256,,2448,1
1620713853286,177277,,2391,1
1620713853286,177298,,2380,1
1620713853286,177318,,2353,1
1620713853286,177338,,2167,1
1620713853286,177358,,2022,1
1620713853286,177378,,1872,1
1620713853286,177398,,1775,1
1620713853286,177418,,1718,1
1620713853286,177438,,1682,1
1620713853286,177458,,1760,1
1620713853286,177478,,1804,1
1620713853286,177498,,1846,1
1620713853286,177519,,1891,1
1620713853286,177539,,1918,1
1620713853286,177559,,1970,1
1620713853286,177579,,1968,1
1620713853286,177599,,1937,1
1620713853286,177619,,1893,1
1620713853286,177639,,1858,1
1620713853286,177659,,1867,1
1620713853286,177679,,1855,1
1620713853286,177699,,1839,1
1620713853286,177719,,1825,1
1620713853286,177740,,1825,1
1620713853286,177760,,1857,1
1620713853791,177781,,1882,1
1620713853791,177801,,1977,1
1620713853791,177821,,2069,1
1620713853791,177841,,2000,1
1620713853791,177861,,1902,1
1620713853791,177881,,1841,1
1620713853791,177901,,1783,1
1620713853791,177921,,1776,1
1620713853791,177941,,1843,1
1620713853791,177962,,2003,1
1620713853791,177982,,2197,1
1620713853791,178002,,2327,1
1620713853791,178022,,2400,1
1620713853791,178042,,2391,1
1620713853791,178062,,2333,1
1620713853791,178082,,2256,1
1620713853791,178102,,2143,1
1620713853791,178122,,2034,1
1620713853791,178142,,1964,1
1620713853791,178162,,1906,1
1620713853791,178183,,1891,1
1620713853791,178203,,1845,1
1620713853791,178223,,1821,1
1620713853791,178243,,1825,1
1620713853791,178263,,1839,1
1620713854298,178283,,1910,1
1620713854298,178303,,2037,1
1620713854298,178323,,2141,1
1620713854298,178343,,2075,1
1620713854298,178363,,1920,1
1620713854298,178383,,1881,1
1620713854298,178404,,1797,1
1620713854298,178424,,1761,1
1620713854298,178444,,1753,1
1620713854298,178464,,1742,1
1620713854298,178484,,1825,1
1620713854298,178504,,1839,1
1620713854298,178524,,1838,1
1620713854298,178544,,1840,1
1620713854298,178564,,1837,1
1620713854298,178584,,1925,1
1620713854298,178604,,1936,1
1620713854298,178625,,1904,1
1620713854298,178645,,1877,1
1620713854298,178665,,1862,1
1620713854298,178685,,1929,1
1620713854298,178705,,2019,1
1620713854298,178725,,2154,1
1620713854298,178745,,2301,1
1620713854298,178765,,2409,1
1620713854801,178785,,2453,1
1620713854801,178805,,2522,1
1620713854801,178825,,2501,1
1620713854801,178846,,2381,1
1620713854801,178866,,2147,1
1620713854801,178886,,1998,1
1620713854801,178906,,1889,1
1620713854801,178926,,1821,1
1620713854801,178946,,1791,1
1620713854801,178966,,1781,1
1620713854801,178986,,1814,1
1620713854801,179006,,1849,1
1620713854801,179026,,1865,1
1620713854801,179046,,1889,1
1620713854801,179067,,1920,1
1620713854801,179087,,1950,1
1620713854801,179107,,1966,1
1620713854801,179127,,1936,1
1620713854801,179147,,1903,1
1620713854801,179167,,1874,1
1620713854801,179187,,1851,1
1620713854801,179207,,1851,1
1620713854801,179227,,1827,1
1620713854801,179247,,1805,1
1620713854801,179267,,1792,1
1620713855360,179287,,1789,1
1620713855360,179307,,1904,1
1620713855360,179327,,2000,1
1620713855360,179347,,1989,1
1620713855360,179367,,1872,1
1620713855360,179387,,1763,1
1620713855360,179407,,1777,1
1620713855360,179427,,1766,1
1620713855360,179447,,1779,1
1620713855360,179467,,1811,1
1620713855360,179487,,1858,1
1620713855360,179508,,2060,1
1620713855360,179528,,2195,1
1620713855360,179548,,2326,1
1620713855360,179568,,2387,1
1620713855360,179588,,2358,1
1620713855360,179608,,2352,1
1620713855360,179628,,2256,1
1620713855360,179648,,2149,1
1620713855360,179668,,2036,1
1620713855360,179688,,1963,1
1620713855360,179708,,1922,1
1620713855360,179729,,1881,1
1620713855360,179749,,1841,1
1620713855360,179769,,1819,1
1620713855816,179789,,1814,1
1620713855816,179809,,1945,1
1620713855816,179829,,2064,1
1620713855816,179849,,2030,1
1620713855816,179869,,1936,1
1620713855816,179889,,1867,1
1620713855816,179909,,1847,1
1620713855816,179929,,1840,1
1620713855816,179950,,1822,1
1620713855816,179970,,1808,1
1620713855816,179990,,1795,1
1620713855816,180010,,1818,1
1620713855816,180030,,1839,1
1620713855816,180050,,1826,1
1620713855816,180070,,1821,1
1620713855816,180090,,1820,1
1620713855816,180110,,1834,1
1620713855816,180130,,1851,1
1620713855816,180150,,1847,1
1620713855816,180171,,1843,1
1620713855816,180191,,1838,1
1620713855816,180211,,1831,1
1620713855816,180231,,1867,1
1620713855816,180251,,1875,1
1620713855816,180271,,1921,1
1620713856306,180292,,2057,1
1620713856306,180312,,2287,1
1620713856306,180332,,2500,1
1620713856306,180352,,2506,1
1620713856306,180372,,2379,1
1620713856306,180393,,2224,1
1620713856306,180413,,2061,1
1620713856306,180433,,2031,1
1620713856306,180453,,1949,1
1620713856306,180473,,1890,1
1620713856306,180493,,1853,1
1620713856306,180513,,1804,1
1620713856306,180533,,1842,1
1620713856306,180553,,1827,1
1620713856306,180573,,1815,1
1620713856306,180593,,1829,1
1620713856306,180614,,1824,1
1620713856306,180634,,1907,1
1620713856306,180654,,1920,1
1620713856306,180674,,1904,1
1620713856306,180694,,1875,1
1620713856306,180714,,1842,1
1620713856306,180734,,1849,1
1620713856306,180754,,1809,1
1620713856306,180774,,1776,1
1620713856810,180795,,1755,1
1620713856810,180815,,1858,1
1620713856810,180836,,1957,1
1620713856810,180856,,1902,1
1620713856810,180876,,1775,1
1620713856810,180896,,1710,1
1620713856810,180916,,1685,1
1620713856810,180936,,1735,1
1620713856810,180956,,1765,1
1620713856810,180976,,1776,1
1620713856810,180996,,1787,1
1620713856810,181016,,1805,1
1620713856810,181036,,1853,1
1620713856810,181057,,1941,1
1620713856810,181077,,2042,1
1620713856810,181097,,2161,1
1620713856810,181117,,2267,1
1620713856810,181137,,2331,1
1620713856810,181157,,2326,1
1620713856810,181177,,2256,1
1620713856810,181197,,2161,1
1620713856810,181217,,2070,1
1620713856810,181237,,2021,1
1620713856810,181257,,1991,1
1620713856810,181278,,1933,1
1620713857330,181299,,1887,1
1620713857330,181319,,1968,1
1620713857330,181339,,2035,1
1620713857330,181359,,1983,1
1620713857330,181379,,1865,1
1620713857330,181399,,1798,1
1620713857330,181419,,1791,1
1620713857330,181439,,1818,1
1620713857330,181459,,1874,1
1620713857330,181479,,1879,1
1620713857330,181500,,1885,1
1620713857330,181520,,1882,1
1620713857330,181540,,1866,1
1620713857330,181560,,1883,1
1620713857330,181580,,1855,1
1620713857330,181600,,1835,1
1620713857330,181620,,1824,1
1620713857330,181640,,1797,1
1620713857330,181660,,1849,1
1620713857330,181680,,1850,1
1620713857330,181700,,1846,1
1620713857330,181721,,1852,1
1620713857330,181741,,1835,1
1620713857330,181761,,1898,1
1620713857330,181781,,1885,1
1620713857893,181801,,1889,1
1620713857893,181821,,2029,1
1620713857893,181841,,2185,1
1620713857893,181861,,2293,1
1620713857893,181881,,2283,1
1620713857893,181901,,2252,1
1620713857893,181921,,2209,1
1620713857893,181942,,2129,1
1620713857893,181962,,2101,1
1620713857893,181982,,2038,1
1620713857893,182002,,1976,1
1620713857893,182022,,1936,1
1620713857893,182042,,1910,1
1620713857893,182062,,1904,1
1620713857893,182082,,1883,1
1620713857893,182102,,1856,1
1620713857893,182122,,1844,1
1620713857893,182142,,1855,1
1620713857893,182163,,1897,1
1620713857893,182183,,1920,1
1620713857893,182203,,1918,1
1620713857893,182223,,1915,1
1620713857893,182243,,1904,1
1620713857893,182263,,1914,1
1620713857893,182283,,1902,1
1620713858314,182304,,1883,1
1620713858314,182324,,1957,1
1620713858314,182344,,2021,1
1620713858314,182364,,1943,1
1620713858314,182385,,1831,1
1620713858314,182405,,1743,1
1620713858314,182425,,1706,1
1620713858314,182445,,1710,1
1620713858314,182465,,1707,1
1620713858314,182485,,1855,1
1620713858314,182505,,1966,1
1620713858314,182525,,2037,1
1620713858314,182545,,2090,1
1620713858314,182565,,2157,1
1620713858314,182585,,2207,0
1620713858314,182606,,2197,0
1620713858314,182626,,2217,0
1620713858314,182646,,2237,0
1620713858314,182666,,2211,0
1620713858314,182686,,2215,0
1620713858314,182706,,2144,0
1620713858314,182726,,2067,0
1620713858314,182746,,1995,0
1620713858314,182766,,1914,0
1620713858314,182786,,1911,0
1620713858855,182806,,1855,0
1620713858855,182827,,1904,0
1620713858855,182847,,1957,0
1620713858855,182867,,1840,0
1620713858855,182887,,1807,0
1620713858855,182907,,1766,0
1620713858855,182927,,1774,0
1620713858855,182947,,1813,0
1620713858855,182967,,1840,0
1620713858855,182987,,1914,0
1620713858855,183007,,1930,0
1620713858855,183027,,1933,0
1620713858855,183048,,1923,0
1620713858855,183068,,1902,0
1620713858855,183088,,1918,0
1620713858855,183108,,1905,0
1620713858855,183128,,1881,0
1620713858855,183148,,1875,0
1620713858855,183168,,1876,0
1620713858855,183188,,1903,0
1620713858855,183208,,1899,0
1620713858855,183228,,1885,0
1620713858855,183248,,1872,0
1620713858855,183269,,1863,0
1620713858855,183289,,1879,0
1620713859328,183310,,1936,0
1620713859328,183330,,2092,0
1620713859328,183350,,2281,0
1620713859328,183370,,2339,0
1620713859328,183390,,2340,0
1620713859328,183410,,2298,0
1620713859328,183430,,2220,0
1620713859328,183450,,2128,0
1620713859328,183470,,2056,0
1620713859328,183491,,2007,0
1620713859328,183511,,1987,0
1620713859328,183531,,1953,0
1620713859328,183551,,1922,0
1620713859328,183571,,1891,0
1620713859328,183591,,1861,0
1620713859328,183611,,1910,0
1620713859328,183631,,1878,0
1620713859328,183651,,1859,0
1620713859328,183671,,1863,0
1620713859328,183691,,1873,0
1620713859328,183712,,1919,0
1620713859328,183732,,1921,0
1620713859328,183752,,1911,0
1620713859328,183772,,1899,0
1620713859328,183792,,1877,0
1620713859825,183812,,1899,0
1620713859825,183832,,1977,0
1620713859825,183852,,2042,0
1620713859825,183872,,1959,0
1620713859825,183892,,1808,0
1620713859825,183912,,1788,0
1620713859825,183933,,1742,0
1620713859825,183953,,1730,0
1620713859825,183973,,1744,0
1620713859825,183993,,1743,0
1620713859825,184013,,1830,0
