localTime,remoteTime,label,bvp,signalOK
1620715350976,1306306,,1773,0
1620715350976,1306326,,1763,0
1620715350976,1306346,,1703,0
1620715350976,1306366,,1666,0
1620715350976,1306386,,1665,0
1620715350976,1306407,,1648,0
1620715350976,1306427,,1730,0
1620715350976,1306447,,1743,0
1620715350976,1306467,,1743,0
1620715350976,1306487,,1738,0
1620715350976,1306507,,1690,0
1620715350976,1306527,,1744,0
1620715350976,1306547,,1732,0
1620715350976,1306567,,1712,0
1620715350976,1306587,,1697,0
1620715350976,1306607,,1678,0
1620715350976,1306627,,1715,0
1620715350976,1306647,,1714,0
1620715350976,1306667,,1701,0
1620715350976,1306687,,1718,0
1620715350976,1306707,,1751,0
1620715351472,1306727,,1791,0
1620715351472,1306747,,1942,0
1620715351472,1306767,,2034,0
1620715351472,1306787,,2055,0
1620715351472,1306807,,1901,0
1620715351472,1306827,,1802,0
1620715351472,1306847,,1723,0
1620715351472,1306867,,1674,0
1620715351472,1306887,,1667,0
1620715351472,1306907,,1707,0
1620715351472,1306927,,1766,0
1620715351472,1306947,,1840,0
1620715351472,1306967,,1879,0
1620715351472,1306987,,1922,0
1620715351472,1307007,,1952,0
1620715351472,1307027,,1967,0
1620715351472,1307047,,1982,0
1620715351472,1307067,,1935,0
1620715351472,1307087,,1886,0
1620715351472,1307107,,1845,0
1620715351472,1307127,,1809,0
1620715351472,1307147,,1814,0
1620715351472,1307167,,1789,0
1620715351472,1307187,,1761,0
1620715351472,1307207,,1758,0
1620715351958,1307227,,1731,0
1620715351958,1307247,,1851,0
1620715351958,1307267,,1936,0
1620715351958,1307287,,1953,0
1620715351958,1307308,,1796,0
1620715351958,1307328,,1648,0
1620715351958,1307348,,1642,0
1620715351958,1307368,,1650,0
1620715351958,1307388,,1709,0
1620715351958,1307408,,1798,0
1620715351958,1307428,,1855,0
1620715351958,1307448,,1984,0
1620715351958,1307468,,2021,0
1620715351958,1307488,,2043,0
1620715351958,1307508,,2056,0
1620715351958,1307528,,2030,0
1620715351958,1307548,,2011,0
1620715351958,1307568,,1943,0
1620715351958,1307588,,1863,0
1620715351958,1307608,,1808,0
1620715351958,1307628,,1778,0
1620715351958,1307648,,1790,0
1620715351958,1307668,,1780,0
1620715351958,1307688,,1759,0
1620715351958,1307708,,1744,0
1620715352460,1307728,,1728,0
1620715352460,1307748,,1870,0
1620715352460,1307768,,1985,0
1620715352460,1307788,,2045,0
1620715352460,1307808,,1927,0
1620715352460,1307828,,1810,0
1620715352460,1307849,,1727,0
1620715352460,1307869,,1823,0
1620715352460,1307889,,1865,0
1620715352460,1307909,,1888,0
1620715352460,1307929,,1808,0
1620715352460,1307949,,1659,0
1620715352460,1307969,,1701,0
1620715352460,1307989,,1794,0
1620715352460,1308009,,1862,0
1620715352460,1308029,,1897,0
1620715352460,1308049,,1961,0
1620715352460,1308069,,1911,0
1620715352460,1308090,,1829,0
1620715352460,1308110,,1795,0
1620715352460,1308130,,1803,0
1620715352460,1308150,,1805,0
1620715352460,1308170,,1877,0
1620715352460,1308190,,1893,0
1620715352460,1308210,,1914,0
1620715352968,1308230,,1898,0
1620715352968,1308250,,2010,0
1620715352968,1308270,,2098,0
1620715352968,1308290,,2111,0
1620715352968,1308310,,1951,0
1620715352968,1308330,,1821,0
1620715352968,1308350,,1696,0
1620715352968,1308370,,1698,0
1620715352968,1308391,,1680,0
1620715352968,1308411,,1683,0
1620715352968,1308431,,1698,0
1620715352968,1308451,,1680,0
1620715352968,1308472,,1778,0
1620715352968,1308492,,1805,0
1620715352968,1308512,,1793,0
1620715352968,1308532,,1776,0
1620715352968,1308552,,1753,0
1620715352968,1308572,,1789,0
1620715352968,1308592,,1788,0
1620715352968,1308612,,1776,0
1620715352968,1308632,,1764,0
1620715352968,1308652,,1761,0
1620715352968,1308672,,1790,0
1620715352968,1308692,,1808,0
1620715352968,1308712,,1812,0
1620715353473,1308732,,1807,0
1620715353473,1308752,,1999,0
1620715353473,1308772,,2114,0
1620715353473,1308792,,2183,0
1620715353473,1308812,,2045,0
1620715353473,1308832,,1906,0
1620715353473,1308852,,1818,0
1620715353473,1308872,,1782,0
1620715353473,1308892,,1776,0
1620715353473,1308912,,1762,0
1620715353473,1308932,,1744,0
1620715353473,1308952,,1731,0
1620715353473,1308972,,1735,0
1620715353473,1308992,,1769,0
1620715353473,1309012,,1758,0
1620715353473,1309032,,1752,0
1620715353473,1309052,,1744,0
1620715353473,1309072,,1717,0
1620715353473,1309092,,1755,0
1620715353473,1309112,,1735,0
1620715353473,1309132,,1717,0
1620715353473,1309152,,1706,0
1620715353473,1309173,,1694,0
1620715353473,1309193,,1744,0
1620715353473,1309213,,1744,0
1620715353972,1309234,,1712,0
1620715353972,1309254,,1817,0
1620715353972,1309274,,1888,0
1620715353972,1309294,,1931,0
1620715353972,1309314,,1801,0
1620715353972,1309334,,1711,0
1620715353972,1309354,,1680,0
1620715353972,1309374,,1679,0
1620715353972,1309394,,1794,0
1620715353972,1309414,,1872,0
1620715353972,1309434,,1918,0
1620715353972,1309454,,1951,0
1620715353972,1309475,,1929,0
1620715353972,1309495,,1996,0
1620715353972,1309515,,1978,0
1620715353972,1309535,,1931,0
1620715353972,1309555,,1867,0
1620715353972,1309575,,1798,0
1620715353972,1309595,,1799,0
1620715353972,1309615,,1783,0
1620715353972,1309635,,1762,0
1620715353972,1309655,,1757,0
1620715353972,1309675,,1763,0
1620715353972,1309695,,1791,0
1620715353972,1309715,,1801,0
1620715354465,1309735,,1757,0
1620715354465,1309755,,1863,1
1620715354465,1309775,,1939,1
1620715354465,1309795,,1991,1
1620715354465,1309815,,1914,1
1620715354465,1309835,,1782,1
1620715354465,1309855,,1669,1
1620715354465,1309875,,1606,1
1620715354465,1309895,,1585,1
1620715354465,1309915,,1648,1
1620715354465,1309935,,1712,1
1620715354465,1309955,,1798,1
1620715354465,1309975,,1893,1
1620715354465,1309995,,1967,1
1620715354465,1310015,,2059,0
1620715354465,1310035,,2067,0
1620715354465,1310055,,2042,0
1620715354465,1310075,,1990,0
1620715354465,1310095,,1902,0
1620715354465,1310115,,1898,0
1620715354465,1310135,,1843,0
1620715354465,1310155,,1776,0
1620715354465,1310175,,1748,0
1620715354465,1310195,,1718,0
1620715354465,1310215,,1783,0
1620715354979,1310235,,1759,0
1620715354979,1310255,,1872,0
1620715354979,1310275,,1943,0
1620715354979,1310295,,1948,0
1620715354979,1310315,,1863,0
1620715354979,1310335,,1744,0
1620715354979,1310355,,1659,0
1620715354979,1310375,,1617,0
1620715354979,1310396,,1594,0
1620715354979,1310416,,1663,0
1620715354979,1310436,,1687,0
1620715354979,1310456,,1701,0
1620715354979,1310476,,1719,0
1620715354979,1310496,,1744,0
1620715354979,1310516,,1825,0
1620715354979,1310536,,1890,0
1620715354979,1310556,,1938,0
1620715354979,1310576,,1977,0
1620715354979,1310596,,2011,0
1620715354979,1310616,,2043,0
1620715354979,1310636,,2064,0
1620715354979,1310656,,2033,0
1620715354979,1310676,,1982,0
1620715354979,1310696,,1922,0
1620715354979,1310717,,1877,0
1620715355473,1310737,,1805,0
1620715355473,1310757,,1951,0
1620715355473,1310777,,1971,0
1620715355473,1310797,,1977,0
1620715355473,1310817,,1824,0
1620715355473,1310838,,1689,0
1620715355473,1310858,,1601,0
1620715355473,1310878,,1565,0
1620715355473,1310898,,1583,0
1620715355473,1310918,,1644,0
1620715355473,1310938,,1735,0
1620715355473,1310959,,1789,0
1620715355473,1310979,,1827,0
1620715355473,1310999,,1841,0
1620715355473,1311020,,1853,0
1620715355473,1311040,,1869,0
1620715355473,1311061,,1811,0
1620715355473,1311081,,1751,0
1620715355473,1311101,,1713,0
1620715355473,1311121,,1710,0
1620715355473,1311141,,1767,0
1620715355473,1311161,,1813,0
1620715355473,1311181,,1885,0
1620715355473,1311201,,1950,0
1620715355473,1311221,,1984,0
1620715355978,1311242,,2022,0
1620715355978,1311262,,2160,0
1620715355978,1311282,,2222,0
1620715355978,1311302,,2192,0
1620715355978,1311322,,1985,0
1620715355978,1311343,,1870,0
1620715355978,1311363,,1753,0
1620715355978,1311383,,1695,0
1620715355978,1311403,,1685,0
1620715355978,1311423,,1677,0
1620715355978,1311443,,1765,0
1620715355978,1311463,,1783,0
1620715355978,1311483,,1789,0
1620715355978,1311503,,1789,0
1620715355978,1311523,,1757,0
1620715355978,1311543,,1809,0
1620715355978,1311564,,1791,0
1620715355978,1311584,,1742,0
1620715355978,1311604,,1707,0
1620715355978,1311624,,1674,0
1620715355978,1311644,,1702,0
1620715355978,1311664,,1701,0
1620715355978,1311684,,1687,0
1620715355978,1311704,,1675,0
1620715355978,1311724,,1675,0
1620715356477,1311744,,1680,0
1620715356477,1311764,,1808,0
1620715356477,1311784,,1938,0
1620715356477,1311804,,2028,0
1620715356477,1311824,,1978,0
1620715356477,1311844,,1970,0
1620715356477,1311865,,1995,0
1620715356477,1311885,,2022,0
1620715356477,1311906,,2064,0
1620715356477,1311926,,2091,0
1620715356477,1311946,,2096,0
1620715356477,1311966,,2083,0
1620715356477,1311986,,2039,0
1620715356477,1312006,,1974,0
1620715356477,1312026,,1911,0
1620715356477,1312046,,1881,0
1620715356477,1312067,,1865,0
1620715356477,1312087,,1819,0
1620715356477,1312107,,1779,0
1620715356477,1312127,,1764,0
1620715356477,1312147,,1758,0
1620715356477,1312167,,1783,0
1620715356477,1312187,,1771,0
1620715356477,1312207,,1744,0
1620715356477,1312227,,1742,0
1620715356986,1312247,,1702,0
1620715356986,1312267,,1809,0
1620715356986,1312287,,1904,0
1620715356986,1312307,,1977,0
1620715356986,1312327,,1857,0
1620715356986,1312347,,1698,0
1620715356986,1312367,,1649,0
1620715356986,1312387,,1605,0
1620715356986,1312407,,1584,0
1620715356986,1312427,,1606,0
1620715356986,1312448,,1648,0
1620715356986,1312468,,1793,0
1620715356986,1312488,,1934,0
1620715356986,1312508,,2027,0
1620715356986,1312528,,2096,0
1620715356986,1312548,,2100,0
1620715356986,1312568,,2170,0
1620715356986,1312588,,2150,0
1620715356986,1312608,,2097,0
1620715356986,1312628,,2018,0
1620715356986,1312648,,1939,0
1620715356986,1312668,,1909,0
1620715356986,1312688,,1858,0
1620715356986,1312708,,1806,0
1620715356986,1312728,,1762,0
1620715358343,1312748,,1703,0
1620715358343,1312768,,1841,0
1620715358343,1312788,,1922,0
1620715358343,1312809,,1968,0
1620715358343,1312829,,1821,0
1620715358343,1312849,,1693,0
1620715358343,1312869,,1637,0
1620715358343,1312890,,1622,0
1620715358343,1312911,,1616,0
1620715358343,1312931,,1623,0
1620715358343,1312951,,1657,0
1620715358343,1312971,,1699,0
1620715358343,1312991,,1728,0
1620715358343,1313011,,1737,0
1620715358343,1313031,,1730,0
1620715358343,1313051,,1729,0
1620715358343,1313071,,1735,0
1620715358343,1313091,,1744,0
1620715358343,1313111,,1734,0
1620715358343,1313131,,1760,0
1620715358343,1313151,,1839,0
1620715358343,1313172,,1934,0
1620715358343,1313192,,2047,0
1620715358343,1313212,,2095,0
1620715358343,1313232,,2102,0
1620715358375,1313252,,2042,0
1620715358375,1313272,,2102,0
1620715358375,1313292,,2147,0
1620715358375,1313312,,2126,0
1620715358375,1313332,,1952,0
1620715358375,1313352,,1806,0
1620715358375,1313372,,1691,0
1620715358375,1313392,,1695,0
1620715358375,1313412,,1685,0
1620715358375,1313432,,1680,0
1620715358375,1313452,,1691,0
1620715358375,1313472,,1681,0
1620715358375,1313492,,1775,0
1620715358375,1313512,,1791,0
1620715358375,1313532,,1786,1
1620715358375,1313553,,1763,1
1620715358375,1313573,,1707,1
1620715358375,1313593,,1742,1
1620715358375,1313613,,1723,1
1620715358375,1313633,,1706,1
1620715358375,1313653,,1693,1
1620715358375,1313673,,1658,1
1620715358375,1313693,,1712,1
1620715358375,1313713,,1715,1
1620715358375,1313734,,1704,1
1620715358706,1313754,,1649,1
1620715358706,1313774,,1783,1
1620715358706,1313794,,1919,1
1620715358706,1313814,,2059,1
1620715358706,1313834,,2010,1
1620715358706,1313854,,1974,1
1620715358706,1313874,,1952,1
1620715358706,1313894,,1974,1
1620715358706,1313914,,1983,1
1620715358706,1313934,,1963,1
1620715358706,1313954,,1942,1
1620715358706,1313974,,1907,1
1620715358706,1313994,,1872,1
1620715358706,1314014,,1840,1
1620715358706,1314035,,1798,1
1620715358706,1314055,,1760,1
1620715358706,1314075,,1740,1
1620715358706,1314095,,1744,1
1620715358706,1314115,,1758,1
1620715358706,1314135,,1756,1
1620715358706,1314155,,1755,1
1620715358706,1314175,,1757,1
1620715358706,1314195,,1758,1
1620715358706,1314215,,1776,1
1620715358706,1314235,,1751,1
1620715358987,1314255,,1698,1
1620715358987,1314275,,1789,1
1620715358987,1314295,,1866,1
1620715358987,1314315,,1881,1
1620715358987,1314335,,1745,1
1620715358987,1314355,,1639,1
1620715358987,1314375,,1586,1
1620715358987,1314395,,1535,1
1620715358987,1314415,,1664,1
1620715358987,1314435,,1751,1
1620715358987,1314455,,1853,1
1620715358987,1314475,,1957,1
1620715358987,1314495,,2000,1
1620715358987,1314515,,2151,1
1620715358987,1314535,,2167,1
1620715358987,1314555,,2115,1
1620715358987,1314575,,2037,1
1620715358987,1314595,,1935,1
1620715358987,1314615,,1921,1
1620715358987,1314635,,1851,1
1620715358987,1314655,,1790,1
1620715358987,1314675,,1743,1
1620715358987,1314695,,1709,1
1620715358987,1314715,,1739,1
1620715358987,1314735,,1750,1
1620715359489,1314755,,1723,1
1620715359489,1314775,,1849,1
1620715359489,1314795,,1937,1
1620715359489,1314815,,1988,1
1620715359489,1314835,,1888,1
1620715359489,1314855,,1731,1
1620715359489,1314875,,1628,1
1620715359489,1314895,,1584,1
1620715359489,1314915,,1586,1
1620715359489,1314935,,1618,1
1620715359489,1314955,,1635,1
1620715359489,1314975,,1648,1
1620715359489,1314995,,1666,1
1620715359489,1315015,,1690,1
1620715359489,1315035,,1755,1
1620715359489,1315055,,1798,1
1620715359489,1315075,,1869,1
1620715359489,1315095,,1952,1
1620715359489,1315115,,2019,1
1620715359489,1315135,,2128,1
1620715359489,1315155,,2149,1
1620715359489,1315175,,2133,1
1620715359489,1315195,,2096,1
1620715359489,1315215,,2023,1
1620715359489,1315235,,2001,1
1620715359992,1315255,,1913,1
1620715359992,1315275,,1955,1
1620715359992,1315295,,1987,1
1620715359992,1315315,,1936,1
1620715359992,1315335,,1825,1
1620715359992,1315355,,1701,1
1620715359992,1315375,,1621,1
1620715359992,1315395,,1610,1
1620715359992,1315415,,1599,1
1620715359992,1315435,,1689,1
1620715359992,1315455,,1715,1
1620715359992,1315475,,1727,1
1620715359992,1315495,,1737,1
1620715359992,1315515,,1725,1
1620715359992,1315535,,1765,1
1620715359992,1315555,,1759,1
1620715359992,1315575,,1730,1
1620715359992,1315595,,1703,1
1620715359992,1315615,,1693,1
1620715359992,1315635,,1710,1
1620715359992,1315655,,1706,1
1620715359992,1315675,,1687,1
1620715359992,1315695,,1689,1
1620715359992,1315716,,1744,1
1620715359992,1315736,,1856,1
1620715360487,1315756,,1954,1
1620715360487,1315776,,2154,1
1620715360487,1315796,,2291,1
1620715360487,1315816,,2342,1
1620715360487,1315837,,2222,1
1620715360487,1315857,,2073,1
1620715360487,1315877,,1936,1
1620715360487,1315897,,1847,1
1620715360487,1315917,,1794,1
1620715360487,1315937,,1771,1
1620715360487,1315957,,1779,1
1620715360487,1315977,,1759,1
1620715360487,1315997,,1741,1
1620715360487,1316017,,1741,1
1620715360487,1316037,,1744,1
1620715360487,1316057,,1785,1
1620715360487,1316077,,1776,1
1620715360487,1316097,,1765,1
1620715360487,1316117,,1748,1
1620715360487,1316137,,1714,1
1620715360487,1316157,,1748,1
1620715360487,1316177,,1727,1
1620715360487,1316197,,1713,1
1620715360487,1316217,,1701,1
1620715360487,1316237,,1663,1
1620715361001,1316257,,1675,1
1620715361001,1316277,,1761,1
1620715361001,1316297,,1833,1
1620715361001,1316317,,1850,1
1620715361001,1316337,,1694,1
1620715361001,1316357,,1638,1
1620715361001,1316377,,1598,1
1620715361001,1316397,,1626,1
1620715361001,1316417,,1731,1
1620715361001,1316437,,1839,1
1620715361001,1316457,,2001,1
1620715361001,1316477,,2111,1
1620715361001,1316497,,2144,1
1620715361001,1316517,,2141,1
1620715361001,1316537,,2109,1
1620715361001,1316557,,2081,1
1620715361001,1316577,,2015,1
1620715361001,1316597,,1936,1
1620715361001,1316617,,1862,1
1620715361001,1316637,,1798,1
1620715361001,1316657,,1773,1
1620715361001,1316677,,1759,1
1620715361001,1316697,,1737,1
1620715361001,1316717,,1729,1
1620715361001,1316737,,1729,1
1620715361492,1316757,,1697,1
1620715361492,1316777,,1808,1
1620715361492,1316797,,1888,1
1620715361492,1316817,,1936,1
1620715361492,1316837,,1808,1
1620715361492,1316857,,1680,1
1620715361492,1316877,,1636,1
1620715361492,1316897,,1600,1
1620715361492,1316917,,1584,1
1620715361492,1316937,,1595,1
1620715361492,1316957,,1600,1
1620715361492,1316977,,1667,1
1620715361492,1316997,,1680,1
1620715361492,1317017,,1692,1
1620715361492,1317037,,1707,1
1620715361492,1317057,,1716,1
1620715361492,1317077,,1845,1
1620715361492,1317097,,1927,1
1620715361492,1317117,,2010,1
1620715361492,1317137,,2067,1
1620715361492,1317157,,2079,1
1620715361492,1317177,,2130,1
1620715361492,1317197,,2106,1
1620715361492,1317217,,2033,1
1620715361492,1317237,,1965,1
1620715362058,1317257,,1870,1
1620715362058,1317277,,1956,1
1620715362058,1317297,,1989,1
1620715362058,1317317,,2005,1
1620715362058,1317337,,1851,1
1620715362058,1317357,,1697,1
1620715362058,1317377,,1643,1
1620715362058,1317397,,1619,1
1620715362058,1317417,,1619,1
1620715362058,1317437,,1650,1
1620715362058,1317457,,1678,1
1620715362058,1317478,,1733,1
1620715362058,1317498,,1776,1
1620715362058,1317518,,1776,1
1620715362058,1317538,,1753,1
1620715362058,1317558,,1722,1
1620715362058,1317578,,1717,1
1620715362058,1317598,,1719,1
1620715362058,1317618,,1702,1
1620715362058,1317638,,1680,1
1620715362058,1317658,,1673,1
1620715362058,1317678,,1669,1
1620715362058,1317698,,1696,1
1620715362058,1317718,,1695,1
1620715362058,1317738,,1713,1
1620715362687,1317758,,1712,1
1620715362687,1317778,,2037,1
1620715362687,1317798,,2214,0
1620715362687,1317818,,2307,0
1620715362687,1317838,,2201,0
1620715362687,1317858,,2061,0
1620715362687,1317878,,1929,0
1620715362687,1317898,,1884,0
1620715362687,1317918,,1840,0
1620715362687,1317938,,1799,0
1620715362687,1317958,,1766,0
1620715362687,1317978,,1712,0
1620715362687,1317998,,1748,0
1620715362687,1318018,,1735,0
1620715362687,1318038,,1718,0
1620715362687,1318058,,1712,0
1620715362687,1318078,,1683,0
1620715362687,1318098,,1744,0
1620715362687,1318118,,1747,0
1620715362687,1318138,,1738,0
1620715362687,1318158,,1729,0
1620715362687,1318178,,1710,0
1620715362687,1318198,,1743,0
1620715362687,1318218,,1737,0
1620715362687,1318238,,1715,0
1620715365497,1320821,,1875,1
1620715365497,1320841,,1710,1
1620715365497,1320861,,1649,1
1620715365497,1320881,,1595,1
1620715365497,1320901,,1595,1
1620715365497,1320921,,1664,1
1620715365497,1320941,,1783,1
1620715365497,1320961,,1950,1
1620715365497,1320981,,2081,1
1620715365497,1321001,,2159,0
1620715365497,1321021,,2189,0
1620715365497,1321041,,2183,0
1620715365497,1321062,,2171,0
1620715365497,1321082,,2129,0
1620715365497,1321102,,2032,0
1620715365497,1321122,,1951,0
1620715365497,1321142,,1871,0
1620715365497,1321162,,1819,0
1620715365497,1321182,,1790,0
1620715365497,1321202,,1746,0
1620715365497,1321222,,1723,0
1620715365497,1321242,,1714,0
1620715366008,1321263,,1693,0
1620715366008,1321283,,1817,0
1620715366008,1321303,,1911,0
1620715366008,1321323,,1982,0
1620715366008,1321343,,1854,0
1620715366008,1321363,,1712,0
1620715366008,1321383,,1647,0
1620715366008,1321403,,1594,0
1620715366008,1321423,,1566,0
1620715366008,1321443,,1567,0
1620715366008,1321463,,1589,0
1620715366008,1321483,,1661,0
1620715366008,1321503,,1679,0
1620715366008,1321523,,1678,0
1620715366008,1321543,,1671,0
1620715366008,1321563,,1666,0
1620715366008,1321583,,1744,0
1620715366008,1321603,,1811,0
1620715366008,1321623,,1895,0
1620715366008,1321643,,1977,0
1620715366008,1321663,,2033,0
1620715366008,1321683,,2161,0
1620715366008,1321703,,2177,0
1620715366008,1321723,,2134,0
1620715366008,1321743,,2110,0
1620715366504,1321763,,2030,0
1620715366504,1321783,,2085,0
1620715366504,1321803,,2096,0
1620715366504,1321823,,2055,0
1620715366504,1321843,,1852,0
1620715366504,1321863,,1673,0
1620715366504,1321883,,1623,0
1620715366504,1321903,,1598,0
1620715366504,1321923,,1599,0
1620715366504,1321943,,1628,0
1620715366504,1321963,,1663,0
1620715366504,1321983,,1712,0
1620715366504,1322003,,1743,0
1620715366504,1322023,,1741,0
1620715366504,1322043,,1732,0
1620715366504,1322063,,1728,0
1620715366504,1322083,,1738,0
1620715366504,1322103,,1744,0
1620715366504,1322123,,1717,0
1620715366504,1322143,,1698,0
1620715366504,1322163,,1678,0
1620715366504,1322183,,1677,0
1620715366504,1322203,,1684,0
1620715366504,1322223,,1664,0
1620715366504,1322243,,1667,0
1620715367003,1322263,,1680,0
1620715367003,1322283,,1843,0
1620715367003,1322303,,2021,0
1620715367003,1322323,,2169,0
1620715367003,1322343,,2130,0
1620715367003,1322363,,2062,0
1620715367003,1322383,,1939,0
1620715367003,1322403,,1981,0
1620715367003,1322423,,2061,0
1620715367003,1322443,,2077,0
1620715367003,1322463,,2035,0
1620715367003,1322483,,1946,0
1620715367003,1322503,,1851,0
1620715367003,1322523,,1687,0
1620715367003,1322543,,1557,0
1620715367003,1322563,,1450,0
1620715367003,1322584,,1560,0
1620715367003,1322604,,1707,0
1620715367003,1322624,,1830,0
1620715367003,1322644,,1754,0
1620715367003,1322664,,1677,0
1620715367003,1322684,,1601,0
1620715367003,1322704,,1626,0
1620715367003,1322724,,1629,0
1620715367003,1322744,,1632,0
1620715367499,1322764,,1579,0
1620715367499,1322784,,1762,0
1620715367499,1322804,,1847,0
1620715367499,1322824,,1921,0
1620715367499,1322844,,1809,0
1620715367499,1322864,,1681,0
1620715367499,1322884,,1597,0
1620715367499,1322904,,1583,0
1620715367499,1322924,,1617,0
1620715367499,1322944,,1691,0
1620715367499,1322964,,1796,0
1620715367499,1322984,,1920,0
1620715367499,1323005,,2038,0
1620715367499,1323025,,2123,0
1620715367499,1323045,,2139,0
1620715367499,1323065,,2113,0
1620715367499,1323085,,2047,0
1620715367499,1323105,,1986,0
1620715367499,1323125,,1938,0
1620715367499,1323145,,1870,0
1620715367499,1323165,,1799,0
1620715367499,1323185,,1744,0
1620715367499,1323205,,1697,0
1620715367499,1323225,,1739,0
1620715367499,1323245,,1737,0
1620715368003,1323265,,1709,0
1620715368003,1323285,,1828,0
1620715368003,1323305,,1904,0
1620715368003,1323325,,1935,0
1620715368003,1323345,,1798,0
1620715368003,1323365,,1662,0
1620715368003,1323386,,1586,0
1620715368003,1323406,,1527,0
1620715368003,1323426,,1595,0
1620715368003,1323446,,1612,0
1620715368003,1323466,,1630,0
1620715368003,1323486,,1646,0
1620715368003,1323507,,1625,0
1620715368003,1323527,,1684,0
1620715368003,1323547,,1681,0
1620715368003,1323567,,1669,0
1620715368003,1323587,,1670,0
1620715368003,1323607,,1665,0
1620715368003,1323627,,1802,0
1620715368003,1323647,,1893,0
1620715368003,1323667,,1969,0
1620715368003,1323688,,2031,0
1620715368003,1323708,,2038,0
1620715368003,1323728,,2107,0
1620715368003,1323748,,2085,0
1620715368534,1323768,,2001,0
1620715368534,1323788,,2057,0
1620715368534,1323808,,2089,0
1620715368534,1323828,,2038,0
1620715368534,1323848,,1973,0
1620715368534,1323868,,1931,0
1620715368534,1323888,,1776,0
1620715368534,1323908,,1609,0
1620715368534,1323928,,1535,0
1620715368534,1323948,,1535,0
1620715368534,1323968,,1575,0
1620715368534,1323988,,1615,0
1620715368534,1324008,,1653,1
1620715368534,1324029,,1702,1
1620715368534,1324049,,1738,1
1620715368534,1324069,,1725,1
1620715368534,1324089,,1712,1
1620715368534,1324109,,1707,1
1620715368534,1324129,,1705,1
1620715368534,1324149,,1707,1
1620715368534,1324169,,1679,1
1620715368534,1324189,,1659,1
1620715368534,1324210,,1664,1
1620715368534,1324230,,1680,1
1620715368534,1324251,,1703,1
1620715369006,1324271,,1664,1
1620715369006,1324291,,1767,1
1620715369006,1324311,,1884,1
1620715369006,1324331,,1978,1
1620715369006,1324351,,1971,1
1620715369006,1324371,,1936,1
1620715369006,1324391,,1918,1
1620715369006,1324411,,1933,1
1620715369006,1324431,,1936,1
1620715369006,1324451,,1994,1
1620715369006,1324471,,1975,1
1620715369006,1324491,,1940,1
1620715369006,1324512,,1904,1
1620715369006,1324532,,1835,1
1620715369006,1324552,,1838,1
1620715369006,1324573,,1789,1
1620715369006,1324593,,1744,1
1620715369006,1324614,,1715,1
1620715369006,1324634,,1671,1
1620715369006,1324654,,1771,1
1620715369006,1324674,,1780,1
1620715369006,1324694,,1761,1
1620715369006,1324714,,1743,1
1620715369006,1324734,,1691,1
1620715369006,1324754,,1744,1
1620715369526,1324775,,1709,1
1620715369526,1324795,,1794,1
1620715369526,1324815,,1855,1
1620715369526,1324835,,1845,1
1620715369526,1324855,,1744,1
1620715369526,1324876,,1632,1
1620715369526,1324896,,1554,1
1620715369526,1324916,,1520,1
1620715369526,1324936,,1515,1
1620715369526,1324956,,1574,1
1620715369526,1324976,,1611,1
1620715369526,1324996,,1627,1
1620715369526,1325017,,1660,1
1620715369526,1325037,,1715,1
1620715369526,1325057,,1829,1
1620715369526,1325078,,1920,1
1620715369526,1325098,,1975,1
1620715369526,1325118,,2000,1
1620715369526,1325138,,2010,1
1620715369526,1325158,,2011,1
1620715369526,1325178,,1989,1
1620715369526,1325198,,1937,1
1620715369526,1325218,,1900,1
1620715369526,1325238,,1847,1
1620715369526,1325258,,1811,1
1620715370040,1325278,,1754,1
1620715370040,1325298,,1823,1
1620715370040,1325319,,1915,1
1620715370040,1325339,,1930,1
1620715370040,1325360,,1806,1
1620715370040,1325380,,1707,1
1620715370040,1325400,,1619,1
1620715370040,1325420,,1579,1
1620715370040,1325440,,1580,1
1620715370040,1325460,,1613,1
1620715370040,1325480,,1671,1
1620715370040,1325500,,1676,1
1620715370040,1325520,,1690,1
1620715370040,1325540,,1695,1
1620715370040,1325561,,1699,1
1620715370040,1325581,,1719,1
1620715370040,1325601,,1699,1
1620715370040,1325621,,1679,1
1620715370040,1325641,,1670,1
1620715370040,1325661,,1646,1
1620715370040,1325681,,1691,1
1620715370040,1325701,,1712,1
1620715370040,1325721,,1756,1
1620715370040,1325741,,1820,1
1620715370040,1325761,,1867,1
1620715370524,1325781,,1953,1
1620715370524,1325801,,2095,1
1620715370524,1325821,,2171,1
1620715370524,1325842,,2183,1
1620715370524,1325863,,1989,1
1620715370524,1325883,,1890,1
1620715370524,1325904,,1775,1
1620715370524,1325925,,1691,1
1620715370524,1325945,,1650,1
1620715370524,1325965,,1623,1
1620715370524,1325986,,1690,1
1620715370524,1326006,,1709,1
1620715370524,1326026,,1719,1
1620715370524,1326046,,1743,1
1620715370524,1326066,,1712,1
1620715370524,1326086,,1781,1
1620715370524,1326106,,1769,1
1620715370524,1326127,,1735,1
1620715370524,1326148,,1707,1
1620715370524,1326169,,1668,1
1620715370524,1326189,,1717,1
1620715370524,1326210,,1709,1
1620715370524,1326230,,1685,1
1620715370524,1326251,,1665,1
1620715370524,1326271,,1621,1
1620715371043,1326291,,1655,1
1620715371043,1326311,,1762,1
1620715371043,1326331,,1835,1
1620715371043,1326352,,1861,1
1620715371043,1326373,,1730,1
1620715371043,1326393,,1724,1
1620715371043,1326414,,1731,1
1620715371043,1326434,,1795,1
1620715371043,1326454,,1871,1
1620715371043,1326474,,1910,1
1620715371043,1326494,,2032,1
1620715371043,1326514,,2064,1
1620715371043,1326534,,2045,1
1620715371043,1326554,,1990,1
1620715371043,1326574,,1922,1
1620715371043,1326594,,1899,1
1620715371043,1326614,,1830,1
1620715371043,1326635,,1775,1
1620715371043,1326655,,1729,1
1620715371043,1326676,,1709,1
1620715371043,1326697,,1747,1
1620715371043,1326718,,1761,1
1620715371043,1326738,,1751,1
1620715371043,1326759,,1742,1
1620715371043,1326779,,1729,1
1620715371557,1326799,,1743,1
1620715371557,1326819,,1840,1
1620715371557,1326839,,1909,1
1620715371557,1326860,,1926,1
1620715371557,1326880,,1767,1
1620715371557,1326901,,1685,1
1620715371557,1326921,,1614,1
1620715371557,1326942,,1569,1
1620715371557,1326962,,1566,1
1620715371557,1326982,,1578,1
1620715371557,1327002,,1600,1
1620715371557,1327022,,1750,1
1620715371557,1327042,,1874,1
1620715371557,1327062,,1961,1
1620715371557,1327082,,2021,1
1620715371557,1327102,,2064,1
1620715371557,1327122,,2087,1
1620715371557,1327142,,2081,1
1620715371557,1327162,,2047,1
1620715371557,1327183,,2010,1
1620715371557,1327203,,2007,1
1620715371557,1327223,,1869,1
1620715371557,1327244,,1723,1
1620715371557,1327265,,1645,1
1620715371557,1327285,,1616,1
1620715372117,1327305,,1605,1
1620715372117,1327325,,1761,1
1620715372117,1327345,,1872,1
1620715372117,1327365,,1953,1
1620715372117,1327386,,1843,1
1620715372117,1327406,,1737,1
1620715372117,1327427,,1683,1
1620715372117,1327447,,1643,1
1620715372117,1327468,,1625,1
1620715372117,1327488,,1647,1
1620715372117,1327509,,1701,1
1620715372117,1327529,,1737,1
1620715372117,1327550,,1743,1
1620715372117,1327571,,1736,1
1620715372117,1327591,,1714,1
1620715372117,1327612,,1714,1
1620715372117,1327632,,1718,1
1620715372117,1327652,,1701,1
1620715372117,1327672,,1680,1
1620715372117,1327693,,1680,1
1620715372117,1327713,,1699,1
1620715372117,1327734,,1750,1
1620715372117,1327754,,1802,1
1620715372117,1327775,,1863,1
1620715372117,1327795,,1935,1
1620715372548,1327815,,1957,1
1620715372548,1327835,,2121,1
1620715372548,1327855,,2225,1
1620715372548,1327875,,2262,1
1620715372548,1327895,,2097,1
1620715372548,1327915,,1935,1
1620715372548,1327935,,1847,1
1620715372548,1327955,,1775,1
1620715372548,1327975,,1711,1
1620715372548,1327995,,1685,1
1620715372548,1328015,,1669,1
1620715372548,1328035,,1720,1
1620715372548,1328055,,1732,1
1620715372548,1328075,,1745,1
1620715372548,1328095,,1766,1
1620715372548,1328115,,1749,1
1620715372548,1328135,,1804,1
1620715372548,1328155,,1776,1
1620715372548,1328175,,1750,1
1620715372548,1328196,,1734,1
1620715372548,1328216,,1680,1
1620715372548,1328236,,1737,1
1620715372548,1328256,,1729,1
1620715372548,1328277,,1701,1
1620715372548,1328297,,1680,1
1620715373059,1328317,,1634,1
1620715373059,1328338,,1742,1
1620715373059,1328359,,1820,1
1620715373059,1328379,,1842,1
1620715373059,1328399,,1712,1
1620715373059,1328419,,1593,1
1620715373059,1328439,,1623,1
1620715373059,1328459,,1666,1
1620715373059,1328479,,1743,1
1620715373059,1328500,,1835,1
1620715373059,1328520,,1903,1
1620715373059,1328540,,2010,1
1620715373059,1328560,,2042,1
1620715373059,1328580,,2025,1
1620715373059,1328600,,1985,1
1620715373059,1328620,,1941,1
1620715373059,1328640,,1919,1
1620715373059,1328660,,1889,1
1620715373059,1328680,,1835,1
1620715373059,1328700,,1776,1
1620715373059,1328720,,1733,1
1620715373059,1328740,,1726,1
1620715373059,1328760,,1725,1
1620715373059,1328780,,1719,1
1620715373059,1328800,,1733,1
1620715373560,1328820,,1712,1
1620715373560,1328840,,1841,1
1620715373560,1328860,,1920,1
1620715373560,1328881,,1966,1
1620715373560,1328901,,1813,1
1620715373560,1328921,,1680,1
1620715373560,1328941,,1602,1
1620715373560,1328961,,1600,1
1620715373560,1328981,,1584,1
1620715373560,1329001,,1585,1
1620715373560,1329022,,1597,1
1620715373560,1329042,,1616,1
1620715373560,1329063,,1671,1
1620715373560,1329083,,1684,1
1620715373560,1329103,,1695,1
1620715373560,1329124,,1721,1
1620715373560,1329144,,1776,1
1620715373560,1329164,,1885,1
1620715373560,1329184,,1943,1
1620715373560,1329204,,1975,1
1620715373560,1329224,,2000,1
1620715373560,1329245,,1999,1
1620715373560,1329266,,2019,1
1620715373560,1329287,,1977,1
1620715373560,1329307,,1917,1
1620715374074,1329327,,1837,1
1620715374074,1329347,,1886,1
1620715374074,1329367,,1932,1
1620715374074,1329388,,1926,1
1620715374074,1329408,,1782,1
1620715374074,1329428,,1675,1
1620715374074,1329448,,1601,1
1620715374074,1329468,,1648,1
1620715374074,1329488,,1654,1
1620715374074,1329509,,1667,1
1620715374074,1329529,,1689,1
1620715374074,1329550,,1683,1
1620715374074,1329570,,1753,1
1620715374074,1329590,,1751,1
1620715374074,1329611,,1744,1
1620715374074,1329631,,1719,1
1620715374074,1329651,,1661,1
1620715374074,1329671,,1733,1
1620715374074,1329691,,1714,1
1620715374074,1329712,,1690,1
1620715374074,1329732,,1669,1
1620715374074,1329753,,1645,1
1620715374074,1329774,,1719,1
1620715374074,1329795,,1776,1
1620715374074,1329815,,1834,1
1620715374575,1329835,,1882,1
1620715374575,1329855,,2073,0
1620715374575,1329875,,2192,0
1620715374575,1329895,,2258,0
1620715374575,1329916,,2117,0
1620715374575,1329936,,1957,0
1620715374575,1329957,,1814,0
1620715374575,1329977,,1811,0
1620715374575,1329997,,1773,0
1620715374575,1330018,,1733,0
1620715374575,1330038,,1709,0
1620715374575,1330059,,1670,0
1620715374575,1330079,,1744,0
1620715374575,1330100,,1763,0
1620715374575,1330120,,1766,0
1620715374575,1330141,,1775,0
1620715374575,1330161,,1746,0
1620715374575,1330181,,1795,0
1620715374575,1330202,,1780,0
1620715374575,1330222,,1759,0
1620715374575,1330243,,1732,0
1620715374575,1330263,,1687,0
1620715374575,1330283,,1727,0
1620715374575,1330304,,1712,0
1620715374575,1330324,,1687,0
1620715375096,1330344,,1649,0
1620715375096,1330364,,1755,0
1620715375096,1330384,,1840,0
1620715375096,1330404,,1873,0
1620715375096,1330425,,1744,0
1620715375096,1330445,,1639,0
1620715375096,1330465,,1599,0
1620715375096,1330485,,1680,0
1620715375096,1330505,,1779,0
1620715375096,1330525,,1871,0
1620715375096,1330546,,1965,0
1620715375096,1330566,,2021,0
1620715375096,1330587,,2098,0
1620715375096,1330608,,2099,0
1620715375096,1330629,,2063,0
1620715375096,1330649,,2000,0
1620715375096,1330669,,1921,0
1620715375096,1330689,,1907,0
1620715375096,1330710,,1871,0
1620715375096,1330730,,1808,0
1620715375096,1330751,,1776,0
1620715375096,1330771,,1741,0
1620715375096,1330791,,1770,0
1620715375096,1330812,,1776,0
1620715375096,1330832,,1774,0
1620715375622,1330852,,1741,0
1620715375622,1330872,,1839,1
1620715375622,1330892,,1922,1
1620715375622,1330912,,1953,1
1620715375622,1330933,,1809,1
1620715375622,1330954,,1677,1
1620715375622,1330975,,1613,1
1620715375622,1330995,,1616,1
1620715375622,1331015,,1646,1
1620715375622,1331036,,1646,1
1620715375622,1331056,,1648,1
1620715375622,1331077,,1653,1
1620715375622,1331097,,1689,1
1620715375622,1331118,,1712,1
1620715375622,1331138,,1721,1
1620715375622,1331159,,1743,1
1620715375622,1331179,,1803,1
1620715375622,1331199,,1892,1
1620715375622,1331220,,1981,1
1620715375622,1331240,,2035,1
1620715375622,1331261,,2072,1
1620715375622,1331281,,2085,1
1620715375622,1331302,,2082,1
1620715375622,1331323,,2047,1
1620715375622,1331343,,1990,1
1620715376108,1331363,,1904,1
1620715376108,1331383,,1961,1
1620715376108,1331404,,2007,1
1620715376108,1331425,,1994,1
1620715376108,1331446,,1819,1
1620715376108,1331466,,1694,1
1620715376108,1331487,,1627,1
1620715376108,1331507,,1629,1
1620715376108,1331527,,1652,1
1620715376108,1331547,,1680,1
1620715376108,1331567,,1717,1
1620715376108,1331587,,1744,1
1620715376108,1331608,,1775,1
1620715376108,1331629,,1779,1
1620715376108,1331649,,1747,1
1620715376108,1331669,,1735,1
1620715376108,1331689,,1719,1
1620715376108,1331710,,1731,1
1620715376108,1331730,,1731,1
1620715376108,1331751,,1703,1
1620715376108,1331771,,1670,1
1620715376108,1331792,,1654,1
1620715376108,1331812,,1670,1
1620715376108,1331832,,1694,1
1620715376108,1331852,,1705,1
1620715376611,1331873,,1717,0
1620715376611,1331893,,1916,0
1620715376611,1331913,,2064,0
1620715376611,1331933,,2166,0
1620715376611,1331954,,2085,0
1620715376611,1331975,,1990,0
1620715376611,1331995,,1925,0
1620715376611,1332015,,1897,0
1620715376611,1332035,,1898,0
1620715376611,1332055,,1878,0
1620715376611,1332075,,1867,0
1620715376611,1332096,,1846,0
1620715376611,1332116,,1819,0
1620715376611,1332136,,1823,0
1620715376611,1332156,,1793,0
1620715376611,1332177,,1758,0
1620715376611,1332197,,1743,0
1620715376611,1332218,,1744,0
1620715376611,1332238,,1779,0
1620715376611,1332259,,1770,0
1620715376611,1332279,,1749,0
1620715376611,1332300,,1744,0
1620715376611,1332320,,1731,0
1620715376611,1332340,,1747,0
1620715376611,1332360,,1729,0
1620715377120,1332380,,1678,0
1620715377120,1332400,,1776,0
1620715377120,1332421,,1872,0
1620715377120,1332442,,1859,0
1620715377120,1332463,,1719,0
1620715377120,1332483,,1602,0
1620715377120,1332504,,1535,0
1620715377120,1332524,,1535,0
1620715377120,1332545,,1626,0
1620715377120,1332565,,1694,0
1620715377120,1332585,,1783,0
1620715377120,1332606,,1879,0
1620715377120,1332626,,1958,0
1620715377120,1332646,,2058,0
1620715377120,1332667,,2058,0
1620715377120,1332687,,2031,0
1620715377120,1332708,,2000,0
1620715377120,1332728,,1979,0
1620715377120,1332748,,1997,0
1620715377120,1332768,,1959,0
1620715377120,1332788,,1877,0
1620715377120,1332808,,1776,0
1620715377120,1332828,,1639,0
1620715377120,1332848,,1575,0
1620715377120,1332868,,1502,0
1620715377654,1332888,,1463,0
1620715377654,1332908,,1584,0
1620715377654,1332929,,1725,1
1620715377654,1332949,,1863,1
1620715377654,1332969,,1798,1
1620715377654,1332990,,1712,1
1620715377654,1333010,,1658,1
1620715377654,1333030,,1611,1
1620715377654,1333050,,1673,1
1620715377654,1333070,,1666,1
1620715377654,1333090,,1648,1
1620715377654,1333110,,1618,1
1620715377654,1333130,,1565,1
1620715377654,1333150,,1594,1
1620715377654,1333170,,1555,1
1620715377654,1333190,,1523,1
1620715377654,1333211,,1570,1
1620715377654,1333231,,1764,1
1620715377654,1333251,,2305,0
1620715377654,1333271,,3867,0
1620715377654,1333291,,3870,0
1620715377654,1333312,,3871,0
1620715377654,1333332,,3863,0
1620715377654,1333353,,3871,0
1620715377654,1333373,,3871,0
1620715378136,1333394,,3863,0
1620715378136,1333414,,3871,0
1620715378136,1333435,,3867,0
1620715378136,1333455,,3869,0
1620715378136,1333475,,3874,0
1620715378136,1333495,,3869,0
1620715378136,1333516,,3878,0
1620715378136,1333536,,3874,0
1620715378136,1333557,,3873,0
1620715378136,1333578,,3871,0
1620715378136,1333598,,3879,0
1620715378136,1333619,,3874,0
1620715378136,1333639,,3867,0
1620715378136,1333660,,3877,0
1620715378136,1333680,,3875,0
1620715378136,1333700,,3873,0
1620715378136,1333721,,3875,0
1620715378136,1333741,,3870,0
1620715378136,1333761,,3874,0
1620715378136,1333782,,3871,0
1620715378136,1333803,,3877,0
1620715378136,1333824,,3872,0
1620715378136,1333845,,3865,0
1620715378136,1333866,,3869,0
1620715378136,1333886,,3868,0
1620715378657,1333906,,2432,0
1620715378657,1333926,,955,0
1620715378657,1333947,,0,0
1620715378657,1333967,,0,0
1620715378657,1333988,,0,0
1620715378657,1334009,,0,0
1620715378657,1334030,,0,0
1620715378657,1334051,,0,0
1620715378657,1334072,,0,0
1620715378657,1334093,,0,0
1620715378657,1334114,,0,0
1620715378657,1334135,,0,0
1620715378657,1334155,,0,0
1620715378657,1334175,,0,0
1620715378657,1334196,,0,0
1620715378657,1334217,,0,0
1620715378657,1334238,,0,0
1620715378657,1334259,,0,0
1620715378657,1334280,,0,1
1620715378657,1334301,,0,1
1620715378657,1334322,,0,1
1620715378657,1334343,,0,1
1620715378657,1334364,,0,1
1620715378657,1334384,,0,1
1620715378657,1334405,,0,1
1620715379167,1334426,,0,1
1620715379167,1334446,,0,1
1620715379167,1334467,,0,1
1620715379167,1334488,,0,1
1620715379167,1334509,,0,1
1620715379167,1334530,,0,1
1620715379167,1334551,,368,1
1620715379167,1334571,,1260,1
1620715379167,1334591,,1941,1
1620715379167,1334611,,2327,1
1620715379167,1334632,,2558,1
1620715379167,1334652,,2705,1
1620715379167,1334673,,2698,1
1620715379167,1334694,,2688,1
1620715379167,1334714,,2454,1
1620715379167,1334735,,2160,1
1620715379167,1334755,,1845,1
1620715379167,1334775,,1590,1
1620715379167,1334796,,1469,1
1620715379167,1334816,,1394,1
1620715379167,1334836,,1390,1
1620715379167,1334857,,1428,1
1620715379167,1334877,,1444,1
1620715379167,1334897,,1498,1
1620715379167,1334917,,1478,1
1620715379682,1334937,,1428,1
1620715379682,1334957,,1563,1
1620715379682,1334977,,1733,1
1620715379682,1334997,,1907,1
1620715379682,1335018,,1973,1
1620715379682,1335038,,2104,1
1620715379682,1335058,,2298,1
1620715379682,1335079,,2427,1
1620715379682,1335099,,2523,1
1620715379682,1335120,,2449,1
1620715379682,1335140,,2361,1
1620715379682,1335161,,2463,1
1620715379682,1335181,,2967,0
1620715379682,1335201,,3867,0
1620715379682,1335222,,3867,0
1620715379682,1335243,,3867,0
1620715379682,1335263,,3869,0
1620715379682,1335283,,3871,0
1620715379682,1335304,,3867,0
1620715379682,1335324,,3870,0
1620715379682,1335345,,3870,0
1620715379682,1335365,,3874,0
1620715379682,1335386,,3873,0
1620715379682,1335406,,3874,0
1620715379682,1335427,,3871,0
1620715390303,1345566,,2026,1
1620715390303,1345586,,2116,1
1620715390303,1345606,,2185,1
1620715390303,1345626,,2157,1
1620715390303,1345646,,2063,1
1620715390303,1345667,,1918,1
1620715390303,1345687,,1803,1
1620715390303,1345707,,1711,1
1620715390303,1345727,,1616,1
1620715390303,1345747,,1650,1
1620715390303,1345767,,1676,1
1620715390303,1345787,,1735,1
1620715390303,1345807,,1841,1
1620715390303,1345828,,1923,1
1620715390303,1345848,,2066,1
1620715390303,1345869,,2107,1
1620715390303,1345889,,2125,1
1620715390303,1345910,,2122,1
1620715390303,1345930,,2096,1
1620715390303,1345950,,2161,1
1620715390303,1345970,,2193,1
1620715390303,1345991,,2224,1
1620715390303,1346011,,2268,1
1620715390303,1346032,,2267,1
1620715390303,1346053,,2346,1
1620715390809,1346073,,2332,1
1620715390809,1346093,,2419,1
1620715390809,1346113,,2473,1
1620715390809,1346133,,2466,1
1620715390809,1346153,,2291,1
1620715390809,1346173,,2096,1
1620715390809,1346193,,1931,1
1620715390809,1346214,,1809,1
1620715390809,1346234,,1715,1
1620715390809,1346254,,1698,1
1620715390809,1346275,,1679,1
1620715390809,1346295,,1661,1
1620715390809,1346316,,1664,1
1620715390809,1346336,,1655,1
1620715390809,1346357,,1708,1
1620715390809,1346377,,1720,1
1620715390809,1346398,,1710,1
1620715390809,1346418,,1723,1
1620715390809,1346439,,1769,0
1620715390809,1346460,,1897,0
1620715390809,1346480,,1988,0
1620715390809,1346500,,2060,0
1620715390809,1346520,,2102,0
1620715390809,1346540,,2117,0
1620715390809,1346560,,2132,0
1620715391311,1346581,,2093,0
1620715391311,1346601,,2160,0
1620715391311,1346621,,2224,0
1620715391311,1346641,,2192,0
1620715391311,1346661,,2030,0
1620715391311,1346682,,1849,0
1620715391311,1346702,,1723,0
1620715391311,1346722,,1646,0
1620715391311,1346742,,1623,0
1620715391311,1346762,,1648,0
1620715391311,1346782,,1696,0
1620715391311,1346802,,1719,0
1620715391311,1346822,,1740,0
1620715391311,1346842,,1759,0
1620715391311,1346862,,1770,0
1620715391311,1346882,,1776,0
1620715391311,1346902,,1753,0
1620715391311,1346922,,1723,0
1620715391311,1346942,,1685,0
1620715391311,1346962,,1668,0
1620715391311,1346982,,1689,0
1620715391311,1347002,,1667,0
1620715391311,1347022,,1634,0
1620715391311,1347042,,1617,0
1620715391311,1347062,,1600,0
1620715391814,1347083,,1636,0
1620715391814,1347103,,1809,0
1620715391814,1347123,,1959,0
1620715391814,1347143,,2090,0
1620715391814,1347163,,2017,0
1620715391814,1347183,,2018,0
1620715391814,1347203,,1979,0
1620715391814,1347224,,1965,0
1620715391814,1347244,,1959,0
1620715391814,1347264,,1943,0
1620715391814,1347284,,1990,0
1620715391814,1347304,,1974,0
1620715391814,1347324,,1942,0
1620715391814,1347344,,1893,0
1620715391814,1347364,,1815,0
1620715391814,1347384,,1837,0
1620715391814,1347404,,1799,0
1620715391814,1347424,,1762,0
1620715391814,1347444,,1735,0
1620715391814,1347464,,1707,0
1620715391814,1347484,,1727,0
1620715391814,1347504,,1726,0
1620715391814,1347524,,1711,0
1620715391814,1347544,,1701,0
1620715391814,1347564,,1690,0
1620715392316,1347584,,1671,0
1620715392316,1347604,,1783,0
1620715392316,1347624,,1851,1
1620715392316,1347644,,1865,1
1620715392316,1347664,,1709,1
1620715392316,1347684,,1600,1
1620715392316,1347704,,1531,1
1620715392316,1347724,,1497,1
1620715392316,1347744,,1500,1
1620715392316,1347764,,1535,1
1620715392316,1347784,,1633,1
1620715392316,1347804,,1755,1
1620715392316,1347824,,1855,1
1620715392316,1347844,,1936,1
1620715392316,1347865,,1980,1
1620715392316,1347885,,2025,1
1620715392316,1347906,,2069,1
1620715392316,1347926,,2047,1
1620715392316,1347946,,2009,1
1620715392316,1347966,,1970,1
1620715392316,1347986,,1925,1
1620715392316,1348006,,1909,1
1620715392316,1348026,,1869,1
1620715392316,1348046,,1823,1
1620715392316,1348066,,1784,1
1620715392818,1348087,,1726,1
1620715392818,1348107,,1839,1
1620715392818,1348127,,1923,1
1620715392818,1348147,,1948,1
1620715392818,1348167,,1811,1
1620715392818,1348187,,1686,1
1620715392818,1348207,,1667,1
1620715392818,1348227,,1632,1
1620715392818,1348247,,1619,1
1620715392818,1348267,,1612,1
1620715392818,1348287,,1587,1
1620715392818,1348307,,1664,1
1620715392818,1348327,,1666,1
1620715392818,1348347,,1657,1
1620715392818,1348367,,1648,1
1620715392818,1348387,,1619,1
1620715392818,1348407,,1667,1
1620715392818,1348427,,1680,1
1620715392818,1348447,,1682,1
1620715392818,1348467,,1714,1
1620715392818,1348487,,1765,1
1620715392818,1348508,,1887,1
1620715392818,1348528,,1965,1
1620715392818,1348548,,1994,1
1620715392818,1348568,,2000,1
1620715393323,1348589,,1956,1
1620715393323,1348609,,2042,1
1620715393323,1348629,,2099,0
1620715393323,1348649,,2112,0
1620715393323,1348670,,1936,0
1620715393323,1348691,,1771,0
1620715393323,1348712,,1713,0
1620715393323,1348733,,1664,0
1620715393323,1348753,,1644,0
1620715393323,1348773,,1661,0
1620715393323,1348793,,1684,0
1620715393323,1348813,,1741,0
1620715393323,1348833,,1765,0
1620715393323,1348853,,1733,0
1620715393323,1348873,,1844,0
1620715393323,1348893,,1941,0
1620715393323,1348913,,1889,0
1620715393323,1348933,,1849,0
1620715393323,1348953,,1806,0
1620715393323,1348973,,1760,0
1620715393323,1348993,,1721,0
1620715393323,1349013,,1731,0
1620715393323,1349034,,1616,0
1620715393323,1349054,,1499,0
1620715393323,1349074,,1443,0
1620715393829,1349095,,1424,0
1620715393829,1349115,,1643,0
1620715393829,1349135,,1839,0
1620715393829,1349155,,2022,0
1620715393829,1349175,,2007,0
1620715393829,1349195,,1978,0
1620715393829,1349216,,1955,0
1620715393829,1349236,,1968,0
1620715393829,1349256,,1951,0
1620715393829,1349276,,1931,0
1620715393829,1349296,,1908,0
1620715393829,1349316,,1873,0
1620715393829,1349336,,1887,0
1620715393829,1349356,,1859,0
1620715393829,1349376,,1817,0
1620715393829,1349396,,1776,0
1620715393829,1349417,,1711,0
1620715393829,1349437,,1771,0
1620715393829,1349458,,1760,0
1620715393829,1349478,,1742,0
1620715393829,1349498,,1722,0
1620715393829,1349518,,1683,0
1620715393829,1349538,,1739,0
1620715393829,1349558,,1723,0
1620715393829,1349578,,1681,0
1620715394338,1349598,,1613,0
1620715394338,1349618,,1702,0
1620715394338,1349638,,1776,1
1620715394338,1349658,,1829,1
1620715394338,1349678,,1717,1
1620715394338,1349699,,1623,1
1620715394338,1349719,,1525,1
1620715394338,1349739,,1563,1
1620715394338,1349759,,1557,1
1620715394338,1349779,,1534,1
1620715394338,1349799,,1573,1
1620715394338,1349819,,1639,1
1620715394338,1349839,,1775,1
1620715394338,1349860,,1872,1
1620715394338,1349880,,1927,1
1620715394338,1349901,,1934,1
1620715394338,1349921,,1849,1
1620715394338,1349941,,1738,1
1620715394338,1349961,,1571,1
1620715394338,1349981,,1403,1
1620715394338,1350001,,1264,1
1620715394338,1350022,,1150,1
1620715394338,1350043,,1137,1
1620715394338,1350064,,1136,1
1620715394338,1350084,,1130,1
1620715394840,1350104,,1120,1
1620715394840,1350124,,1298,1
1620715394840,1350145,,1305,1
1620715394840,1350165,,1187,1
1620715394840,1350185,,915,1
1620715394840,1350206,,731,1
1620715394840,1350226,,680,1
1620715394840,1350246,,758,1
1620715394840,1350266,,912,1
1620715394840,1350287,,1065,1
1620715394840,1350307,,1200,1
1620715394840,1350328,,1278,1
1620715394840,1350348,,1311,1
1620715394840,1350368,,1263,1
1620715394840,1350388,,1163,1
1620715394840,1350408,,1074,1
1620715394840,1350429,,1047,1
1620715394840,1350449,,1131,1
1620715394840,1350469,,1279,1
1620715394840,1350490,,1425,1
1620715394840,1350510,,1579,1
1620715394840,1350531,,1694,1
1620715394840,1350551,,1799,1
1620715394840,1350571,,1887,1
1620715394840,1350591,,1896,1
1620715395351,1350612,,1876,1
1620715395351,1350632,,2004,1
1620715395351,1350653,,2142,1
1620715395351,1350673,,2165,1
1620715395351,1350693,,2022,1
1620715395351,1350714,,1858,1
1620715395351,1350734,,1710,1
1620715395351,1350754,,1619,1
1620715395351,1350774,,1578,1
1620715395351,1350794,,1565,1
1620715395351,1350814,,1613,1
1620715395351,1350834,,1693,1
1620715395351,1350854,,1799,1
1620715395351,1350874,,1915,1
1620715395351,1350894,,1956,1
1620715395351,1350915,,1959,1
1620715395351,1350935,,1933,1
1620715395351,1350956,,1918,1
1620715395351,1350977,,1959,1
1620715395351,1350997,,1985,1
1620715395351,1351017,,1985,1
1620715395351,1351037,,1935,1
1620715395351,1351058,,1821,1
1620715395351,1351078,,1711,1
1620715395351,1351099,,1563,1
1620715395850,1351119,,1427,1
1620715395850,1351139,,1577,1
1620715395850,1351160,,1705,1
1620715395850,1351180,,1851,1
1620715395850,1351200,,1842,1
1620715395850,1351220,,1830,1
1620715395850,1351240,,1831,1
1620715395850,1351260,,1829,1
1620715395850,1351281,,1881,1
1620715395850,1351301,,1870,1
1620715395850,1351321,,1841,1
1620715395850,1351341,,1817,1
1620715395850,1351361,,1772,1
1620715395850,1351381,,1790,1
1620715395850,1351401,,1735,1
1620715395850,1351421,,1662,1
1620715395850,1351441,,1566,1
1620715395850,1351461,,1409,1
1620715395850,1351481,,1363,1
1620715395850,1351501,,1283,1
1620715395850,1351521,,1270,1
1620715395850,1351541,,1325,1
1620715395850,1351561,,1391,1
1620715395850,1351581,,1557,1
1620715395850,1351601,,1660,1
1620715396357,1351622,,1707,1
1620715396357,1351642,,1859,1
1620715396357,1351662,,1968,1
1620715396357,1351682,,2022,1
1620715396357,1351702,,2010,1
1620715396357,1351722,,1994,0
1620715396357,1351742,,1859,0
1620715396357,1351763,,1680,0
1620715396357,1351784,,1647,0
1620715396357,1351805,,1623,0
1620715396357,1351825,,1631,0
1620715396357,1351845,,1674,0
1620715396357,1351865,,1744,0
1620715396357,1351885,,1861,0
1620715396357,1351905,,1957,0
1620715396357,1351925,,2022,0
1620715396357,1351945,,2079,0
1620715396357,1351965,,2099,0
1620715396357,1351986,,2118,0
1620715396357,1352006,,2112,0
1620715396357,1352027,,2092,0
1620715396357,1352047,,2064,0
1620715396357,1352068,,2060,0
1620715396357,1352089,,2125,0
1620715396357,1352109,,2191,0
1620715396860,1352129,,2240,0
1620715396860,1352149,,2420,0
1620715396860,1352170,,2519,0
1620715396860,1352190,,2500,0
1620715396860,1352210,,2235,0
1620715396860,1352230,,1964,0
1620715396860,1352250,,1776,0
1620715396860,1352270,,1659,0
1620715396860,1352290,,1626,0
1620715396860,1352310,,1648,0
1620715396860,1352331,,1674,0
1620715396860,1352351,,1701,0
1620715396860,1352371,,1730,0
1620715396860,1352391,,1744,0
1620715396860,1352411,,1755,0
1620715396860,1352431,,1730,0
1620715396860,1352452,,1707,0
1620715396860,1352472,,1681,0
1620715396860,1352492,,1635,0
1620715396860,1352512,,1744,0
1620715396860,1352532,,1846,0
1620715396860,1352552,,1953,0
1620715396860,1352572,,1883,0
1620715396860,1352592,,1753,0
1620715396860,1352612,,1786,0
1620715397361,1352632,,1835,0
1620715397361,1352652,,1834,0
1620715397361,1352672,,1741,0
1620715397361,1352692,,1632,0
1620715397361,1352712,,1455,0
1620715397361,1352732,,1327,1
1620715397361,1352752,,1319,1
1620715397361,1352773,,1264,1
1620715397361,1352793,,1195,1
1620715397361,1352813,,1344,1
1620715397361,1352833,,1571,1
1620715397361,1352853,,1793,1
1620715397361,1352873,,1857,1
1620715397361,1352893,,1776,1
1620715397361,1352913,,1789,1
1620715397361,1352933,,1878,1
1620715397361,1352953,,1982,1
1620715397361,1352973,,1947,1
1620715397361,1352993,,1846,1
1620715397361,1353013,,1808,1
1620715397361,1353034,,1904,1
1620715397361,1353054,,2032,1
1620715397361,1353074,,2021,1
1620715397361,1353094,,1909,1
1620715397361,1353114,,1861,1
1620715397864,1353134,,1962,1
1620715397864,1353154,,2064,1
1620715397864,1353174,,2136,1
1620715397864,1353194,,2107,1
1620715397864,1353215,,1943,1
1620715397864,1353235,,1968,1
1620715397864,1353255,,2011,1
1620715397864,1353275,,2095,1
1620715397864,1353295,,2091,1
1620715397864,1353315,,1975,1
1620715397864,1353335,,2032,1
1620715397864,1353355,,2112,1
1620715397864,1353375,,2160,0
1620715397864,1353395,,2032,0
1620715397864,1353415,,1888,0
1620715397864,1353436,,1921,0
1620715397864,1353457,,1974,0
1620715397864,1353477,,2011,0
1620715397864,1353497,,1873,0
1620715397864,1353517,,1733,0
1620715397864,1353537,,1780,0
1620715397864,1353557,,1855,0
1620715397864,1353577,,1935,0
1620715397864,1353597,,1840,0
1620715397864,1353617,,1710,0
1620715398368,1353637,,1762,0
1620715398368,1353657,,1841,0
1620715398368,1353677,,1917,0
1620715398368,1353697,,1905,0
1620715398368,1353717,,1786,0
1620715398368,1353737,,1765,0
1620715398368,1353757,,1737,0
1620715398368,1353777,,1735,0
1620715398368,1353797,,1762,0
1620715398368,1353817,,1762,0
1620715398368,1353837,,1830,0
1620715398368,1353857,,1810,0
1620715398368,1353877,,1883,0
1620715398368,1353897,,1952,0
1620715398368,1353917,,1851,0
1620715398368,1353938,,1764,0
1620715398368,1353958,,1781,0
1620715398368,1353978,,1793,0
1620715398368,1353998,,1773,0
1620715398368,1354018,,1730,0
1620715398368,1354038,,1671,0
1620715398368,1354058,,1483,0
1620715398368,1354078,,1338,0
1620715398368,1354098,,1360,0
1620715398368,1354118,,1535,0
1620715398873,1354139,,1840,0
1620715398873,1354159,,2224,0
1620715398873,1354179,,2658,0
1620715398873,1354199,,3101,0
1620715398873,1354219,,3167,0
1620715398873,1354239,,2993,0
1620715398873,1354259,,2703,0
1620715398873,1354279,,2254,0
1620715398873,1354299,,1701,0
1620715398873,1354319,,1066,0
1620715398873,1354339,,507,0
1620715398873,1354359,,149,0
1620715398873,1354379,,0,1
1620715398873,1354399,,0,1
1620715398873,1354419,,0,1
1620715398873,1354439,,131,1
1620715398873,1354459,,403,1
1620715398873,1354479,,611,1
1620715398873,1354499,,731,1
1620715398873,1354519,,802,1
1620715398873,1354540,,848,1
1620715398873,1354560,,899,1
1620715398873,1354581,,918,1
1620715398873,1354601,,991,1
1620715398873,1354621,,1118,1
1620715399378,1354641,,1269,1
1620715399378,1354661,,1647,1
1620715399378,1354681,,1951,1
1620715399378,1354701,,2288,1
1620715399378,1354721,,2415,0
1620715399378,1354741,,2541,0
1620715399378,1354761,,2864,0
1620715399378,1354782,,3120,0
1620715399378,1354803,,3325,0
1620715399378,1354823,,3415,0
1620715399378,1354843,,3339,0
1620715399378,1354863,,3268,0
1620715399378,1354883,,3071,0
1620715399378,1354903,,2879,0
1620715399378,1354923,,2704,0
1620715399378,1354943,,2533,0
1620715399378,1354963,,2480,0
1620715399378,1354983,,2386,0
1620715399378,1355003,,2308,0
1620715399378,1355024,,2256,0
1620715399378,1355044,,2209,0
1620715399378,1355064,,2287,0
1620715399378,1355084,,2310,0
1620715399378,1355104,,2325,0
1620715399378,1355124,,2337,0
1620715399877,1355144,,2284,0
1620715399877,1355164,,2434,0
1620715399877,1355184,,2501,0
1620715399877,1355204,,2546,0
1620715399877,1355224,,2431,0
1620715399877,1355244,,2360,0
1620715399877,1355264,,2398,0
1620715399877,1355284,,2480,0
1620715399877,1355304,,2537,0
1620715399877,1355324,,2559,0
1620715399877,1355344,,2559,0
1620715399877,1355364,,2548,0
1620715399877,1355384,,2491,0
1620715399877,1355404,,2399,0
1620715399877,1355424,,2307,0
1620715399877,1355444,,2253,0
1620715399877,1355464,,2190,0
1620715399877,1355484,,2191,0
1620715399877,1355504,,2128,0
1620715399877,1355524,,2064,0
1620715399877,1355544,,2019,0
1620715399877,1355564,,1980,0
1620715399877,1355584,,1986,0
1620715399877,1355604,,1954,0
1620715399877,1355624,,1926,0
1620715400381,1355644,,1862,0
1620715400381,1355664,,2002,0
1620715400381,1355684,,2064,0
1620715400381,1355704,,2079,0
1620715400381,1355724,,1925,1
1620715400381,1355744,,1795,1
1620715400381,1355764,,1679,1
1620715400381,1355784,,1697,1
1620715400381,1355804,,1711,1
1620715400381,1355824,,1732,1
1620715400381,1355844,,1746,1
1620715400381,1355864,,1751,1
1620715400381,1355884,,1845,1
1620715400381,1355904,,1904,1
1620715400381,1355924,,1968,1
1620715400381,1355944,,2047,1
1620715400381,1355964,,2103,1
1620715400381,1355984,,2218,1
1620715400381,1356004,,2278,1
1620715400381,1356024,,2316,1
1620715400381,1356044,,2343,1
1620715400381,1356064,,2334,1
1620715400381,1356084,,2351,1
1620715400381,1356104,,2289,1
1620715400381,1356124,,2195,1
1620715400878,1356144,,2019,1
1620715400878,1356164,,2098,1
1620715400878,1356184,,2109,1
1620715400878,1356204,,2118,1
1620715400878,1356224,,1963,1
1620715400878,1356244,,1827,1
1620715400878,1356264,,1713,1
1620715400878,1356285,,1679,1
1620715400878,1356305,,1682,1
1620715400878,1356325,,1683,1
1620715400878,1356345,,1692,1
1620715400878,1356365,,1706,1
1620715400878,1356385,,1727,1
1620715400878,1356405,,1757,1
1620715400878,1356425,,1746,1
1620715400878,1356445,,1726,1
1620715400878,1356465,,1693,1
1620715400878,1356485,,1665,1
1620715400878,1356505,,1691,1
1620715400878,1356525,,1711,1
1620715400878,1356545,,1759,1
1620715400878,1356565,,1837,1
1620715400878,1356585,,1899,1
1620715400878,1356605,,2045,1
1620715400878,1356625,,2113,1
1620715401374,1356645,,2112,1
1620715401374,1356665,,2277,1
1620715401374,1356685,,2337,1
1620715401374,1356705,,2357,1
1620715401374,1356725,,2190,0
1620715401374,1356745,,2000,0
1620715401374,1356765,,1862,0
1620715401374,1356785,,1744,0
1620715401374,1356805,,1762,0
1620715401374,1356825,,1754,0
1620715401374,1356845,,1726,0
1620715401374,1356865,,1765,0
1620715401374,1356885,,1879,0
1620715401374,1356905,,2017,0
1620715401374,1356925,,1955,0
1620715401374,1356945,,1824,0
1620715401374,1356965,,1713,0
1620715401374,1356985,,1633,0
1620715401374,1357005,,1645,0
1620715401374,1357025,,1655,0
1620715401374,1357045,,1658,0
1620715401374,1357065,,1655,0
1620715401374,1357085,,1661,0
1620715401374,1357105,,1694,0
1620715401374,1357125,,1739,0
1620715401874,1357145,,1749,0
1620715401874,1357165,,1941,0
1620715401874,1357185,,2136,0
1620715401874,1357205,,2288,0
1620715401874,1357225,,2239,0
1620715401874,1357245,,2155,0
1620715401874,1357265,,2085,0
1620715401874,1357285,,2029,0
1620715401874,1357305,,2000,0
1620715401874,1357325,,2003,0
1620715401874,1357345,,1966,0
1620715401874,1357365,,1911,0
1620715401874,1357385,,1861,0
1620715401874,1357405,,1801,0
1620715401874,1357425,,1855,0
1620715401874,1357445,,1830,0
1620715401874,1357465,,1791,0
1620715401874,1357485,,1759,0
1620715401874,1357505,,1722,0
1620715401874,1357525,,1771,0
1620715401874,1357545,,1757,0
1620715401874,1357565,,1738,0
1620715401874,1357585,,1723,0
1620715401874,1357605,,1680,0
1620715401874,1357625,,1719,0
1620715402376,1357645,,1666,0
1620715402376,1357665,,1761,0
1620715402376,1357685,,1841,0
1620715402376,1357705,,1888,0
1620715402376,1357725,,1872,0
1620715402376,1357745,,1846,0
1620715402376,1357765,,1872,0
1620715402376,1357785,,1936,0
1620715402376,1357805,,2015,0
1620715402376,1357825,,2139,0
1620715402376,1357845,,2193,0
1620715402376,1357865,,2221,0
1620715402376,1357885,,2209,0
1620715402376,1357905,,2181,0
1620715402376,1357926,,2146,0
1620715402376,1357946,,2085,0
1620715402376,1357966,,1973,0
1620715402376,1357986,,1898,0
1620715402376,1358006,,1829,0
1620715402376,1358026,,1791,0
1620715402376,1358046,,1777,0
1620715402376,1358066,,1745,0
1620715402376,1358086,,1728,0
1620715402376,1358106,,1725,0
1620715402376,1358126,,1730,0
1620715402874,1358146,,1703,0
1620715402874,1358166,,1808,0
1620715402874,1358186,,1879,0
1620715402874,1358206,,1917,0
1620715402874,1358226,,1781,0
1620715402874,1358246,,1681,0
1620715402874,1358266,,1569,0
1620715402874,1358286,,1514,0
1620715402874,1358306,,1525,0
1620715402874,1358326,,1564,0
1620715402874,1358346,,1748,0
1620715402874,1358366,,1889,0
1620715402874,1358386,,2000,0
1620715402874,1358406,,2115,0
1620715402874,1358426,,2173,0
1620715402874,1358446,,2291,0
1620715402874,1358466,,2320,0
1620715402874,1358486,,2287,0
1620715402874,1358506,,2226,0
1620715402874,1358526,,2120,0
1620715402874,1358546,,2115,0
1620715402874,1358566,,2022,0
1620715402874,1358586,,1937,0
1620715402874,1358606,,1845,0
1620715402874,1358626,,1779,0
1620715403375,1358646,,1722,0
1620715403375,1358666,,1822,0
1620715403375,1358686,,1899,0
1620715403375,1358706,,1936,0
1620715403375,1358726,,1793,0
1620715403375,1358746,,1709,0
1620715403375,1358766,,1629,0
1620715403375,1358786,,1581,0
1620715403375,1358806,,1535,0
1620715403375,1358826,,1535,0
1620715403375,1358846,,1588,0
1620715403375,1358866,,1616,0
1620715403375,1358886,,1623,0
1620715403375,1358906,,1621,0
1620715403375,1358926,,1627,0
1620715403375,1358946,,1646,0
1620715403375,1358966,,1712,0
1620715403375,1358986,,1781,0
1620715403375,1359006,,1885,0
1620715403375,1359026,,1990,0
1620715403375,1359046,,2079,0
1620715403375,1359066,,2223,0
1620715403375,1359086,,2273,0
1620715403375,1359106,,2289,0
1620715403375,1359126,,2294,0
1620715403877,1359146,,2230,0
1620715403877,1359166,,2288,0
1620715403877,1359186,,2322,0
1620715403877,1359206,,2279,0
1620715403877,1359226,,2067,0
1620715403877,1359246,,1847,0
1620715403877,1359266,,1739,0
1620715403877,1359286,,1648,0
1620715403877,1359306,,1603,0
1620715403877,1359326,,1590,0
1620715403877,1359347,,1577,0
1620715403877,1359367,,1661,0
1620715403877,1359387,,1680,0
1620715403877,1359407,,1686,0
1620715403877,1359427,,1682,0
1620715403877,1359447,,1646,0
1620715403877,1359467,,1684,0
1620715403877,1359487,,1677,0
1620715403877,1359507,,1645,0
1620715403877,1359527,,1618,0
1620715403877,1359547,,1597,0
1620715403877,1359567,,1619,0
1620715403877,1359587,,1616,0
1620715403877,1359607,,1600,0
1620715403877,1359627,,1586,0
1620715404383,1359647,,1535,0
1620715404383,1359667,,1710,0
1620715404383,1359687,,1914,0
1620715404383,1359707,,2105,0
1620715404383,1359727,,2117,0
1620715404383,1359747,,2110,0
1620715404383,1359767,,2113,0
1620715404383,1359788,,2190,0
1620715404383,1359808,,2163,0
1620715404383,1359828,,2128,0
1620715404383,1359848,,2015,0
1620715404383,1359868,,2034,0
1620715404383,1359888,,2112,0
1620715404383,1359908,,2108,0
1620715404383,1359928,,2095,0
1620715404383,1359948,,1901,0
1620715404383,1359968,,1665,0
1620715404383,1359988,,1645,0
1620715404383,1360008,,1696,0
1620715404383,1360028,,1750,0
1620715404383,1360048,,1773,0
1620715404383,1360068,,1808,0
1620715404383,1360088,,1739,0
1620715404383,1360108,,1605,0
1620715404383,1360128,,1498,0
1620715404881,1360148,,1402,0
1620715404881,1360168,,1535,0
1620715404881,1360188,,1649,0
1620715404881,1360208,,1751,0
1620715404881,1360228,,1666,0
1620715404881,1360248,,1567,0
1620715404881,1360268,,1456,0
1620715404881,1360288,,1488,0
1620715404881,1360308,,1503,0
1620715404881,1360328,,1535,0
1620715404881,1360348,,1621,0
1620715404881,1360368,,1724,0
1620715404881,1360389,,1917,0
1620715404881,1360409,,2045,0
1620715404881,1360429,,2123,0
1620715404881,1360449,,2143,0
1620715404881,1360469,,2128,0
1620715404881,1360489,,2163,0
1620715404881,1360509,,2159,0
1620715404881,1360529,,2079,0
1620715404881,1360549,,1983,0
1620715404881,1360569,,1863,0
1620715404881,1360589,,1809,0
1620715404881,1360609,,1731,0
1620715404881,1360629,,1674,0
1620715405385,1360649,,1605,0
1620715405385,1360669,,1750,0
1620715405385,1360689,,1840,0
1620715405385,1360709,,1899,0
1620715405385,1360729,,1761,0
1620715405385,1360749,,1627,0
1620715405385,1360769,,1535,0
1620715405385,1360789,,1498,0
1620715405385,1360809,,1520,0
1620715405385,1360830,,1520,0
1620715405385,1360850,,1535,0
1620715405385,1360870,,1563,0
1620715405385,1360890,,1584,0
1620715405385,1360910,,1632,0
1620715405385,1360930,,1631,0
1620715405385,1360950,,1620,0
1620715405385,1360970,,1623,0
1620715405385,1360990,,1622,0
1620715405385,1361010,,1722,0
1620715405385,1361030,,1804,0
1620715405385,1361050,,1891,0
1620715405385,1361070,,1993,0
1620715405385,1361090,,2059,0
1620715405385,1361110,,2149,0
1620715405385,1361130,,2166,0
1620715405881,1361150,,2097,0
1620715405881,1361170,,2227,0
1620715405881,1361190,,2263,0
1620715405881,1361210,,2223,0
1620715405881,1361230,,2123,0
1620715405881,1361250,,2000,0
1620715405881,1361270,,1874,0
1620715405881,1361290,,1781,0
1620715405881,1361310,,1746,0
1620715405881,1361330,,1597,0
1620715405881,1361350,,1479,0
1620715405881,1361370,,1427,0
1620715405881,1361391,,1424,0
1620715405881,1361411,,1520,0
1620715405881,1361431,,1577,0
1620715405881,1361451,,1614,0
1620715405881,1361471,,1635,0
1620715405881,1361491,,1633,0
1620715405881,1361511,,1677,0
1620715405881,1361531,,1673,0
1620715405881,1361551,,1643,0
1620715405881,1361571,,1615,0
1620715405881,1361591,,1584,0
1620715405881,1361611,,1583,0
1620715405881,1361632,,1587,0
1620715406382,1361652,,1525,0
1620715406382,1361672,,1630,0
1620715406382,1361692,,1747,0
1620715406382,1361712,,1873,0
1620715406382,1361732,,1862,0
1620715406382,1361752,,1853,0
1620715406382,1361772,,1872,0
1620715406382,1361792,,1916,0
1620715406382,1361812,,1968,0
1620715406382,1361832,,2041,0
1620715406382,1361852,,2065,0
1620715406382,1361872,,2067,0
1620715406382,1361892,,2036,0
1620715406382,1361912,,1995,0
1620715406382,1361932,,1970,0
1620715406382,1361952,,1898,0
1620715406382,1361972,,1818,0
1620715406382,1361992,,1760,0
1620715406382,1362012,,1705,0
1620715406382,1362032,,1732,0
1620715406382,1362052,,1698,0
1620715406382,1362072,,1660,0
1620715406382,1362092,,1645,0
1620715406382,1362112,,1602,1
1620715406382,1362132,,1653,1
1620715406885,1362152,,1615,1
1620715406885,1362172,,1716,1
1620715406885,1362192,,1787,1
1620715406885,1362212,,1795,1
1620715406885,1362232,,1712,1
1620715406885,1362252,,1591,1
1620715406885,1362272,,1471,1
1620715406885,1362292,,1402,1
1620715406885,1362312,,1374,1
1620715406885,1362332,,1397,1
1620715406885,1362352,,1397,1
1620715406885,1362372,,1375,1
1620715406885,1362392,,1359,1
1620715406885,1362412,,1354,1
1620715406885,1362432,,1428,1
1620715406885,1362452,,1535,1
1620715406885,1362472,,1677,1
1620715406885,1362492,,1813,1
1620715406885,1362512,,1925,1
1620715406885,1362532,,2013,1
1620715406885,1362552,,2073,1
1620715406885,1362572,,2073,1
1620715406885,1362592,,2033,1
1620715406885,1362612,,1986,1
1620715406885,1362632,,1939,1
1620715399378,1354641,,1269,1
1620715399378,1354661,,1647,1
1620715399378,1354681,,1951,1
1620715399378,1354701,,2288,1
1620715399378,1354721,,2415,0
1620715399378,1354741,,2541,0
1620715399378,1354761,,2864,0
1620715399378,1354782,,3120,0
1620715399378,1354803,,3325,0
1620715399378,1354823,,3415,0
1620715399378,1354843,,3339,0
1620715399378,1354863,,3268,0
1620715399378,1354883,,3071,0
1620715399378,1354903,,2879,0
1620715399378,1354923,,2704,0
1620715399378,1354943,,2533,0
1620715399378,1354963,,2480,0
1620715399378,1354983,,2386,0
1620715399378,1355003,,2308,0
1620715399378,1355024,,2256,0
1620715399378,1355044,,2209,0
1620715399378,1355064,,2287,0
1620715399378,1355084,,2310,0
1620715399378,1355104,,2325,0
1620715399378,1355124,,2337,0
1620715399877,1355144,,2284,0
1620715399877,1355164,,2434,0
1620715399877,1355184,,2501,0
1620715399877,1355204,,2546,0
1620715399877,1355224,,2431,0
1620715399877,1355244,,2360,0
1620715399877,1355264,,2398,0
1620715399877,1355284,,2480,0
1620715399877,1355304,,2537,0
1620715399877,1355324,,2559,0
1620715399877,1355344,,2559,0
1620715399877,1355364,,2548,0
1620715399877,1355384,,2491,0
1620715399877,1355404,,2399,0
1620715399877,1355424,,2307,0
1620715399877,1355444,,2253,0
1620715399877,1355464,,2190,0
1620715399877,1355484,,2191,0
1620715399877,1355504,,2128,0
1620715399877,1355524,,2064,0
1620715399877,1355544,,2019,0
1620715399877,1355564,,1980,0
1620715399877,1355584,,1986,0
1620715399877,1355604,,1954,0
1620715399877,1355624,,1926,0
1620715400381,1355644,,1862,0
1620715400381,1355664,,2002,0
1620715400381,1355684,,2064,0
1620715400381,1355704,,2079,0
1620715400381,1355724,,1925,1
1620715400381,1355744,,1795,1
1620715400381,1355764,,1679,1
1620715400381,1355784,,1697,1
1620715400381,1355804,,1711,1
1620715400381,1355824,,1732,1
1620715400381,1355844,,1746,1
1620715400381,1355864,,1751,1
1620715400381,1355884,,1845,1
1620715400381,1355904,,1904,1
1620715400381,1355924,,1968,1
1620715400381,1355944,,2047,1
1620715400381,1355964,,2103,1
1620715400381,1355984,,2218,1
1620715400381,1356004,,2278,1
1620715400381,1356024,,2316,1
1620715400381,1356044,,2343,1
1620715400381,1356064,,2334,1
1620715400381,1356084,,2351,1
1620715400381,1356104,,2289,1
1620715400381,1356124,,2195,1
1620715400878,1356144,,2019,1
1620715400878,1356164,,2098,1
1620715400878,1356184,,2109,1
1620715400878,1356204,,2118,1
1620715400878,1356224,,1963,1
1620715400878,1356244,,1827,1
1620715400878,1356264,,1713,1
1620715400878,1356285,,1679,1
1620715400878,1356305,,1682,1
1620715400878,1356325,,1683,1
1620715400878,1356345,,1692,1
1620715400878,1356365,,1706,1
1620715400878,1356385,,1727,1
1620715400878,1356405,,1757,1
1620715400878,1356425,,1746,1
1620715400878,1356445,,1726,1
1620715400878,1356465,,1693,1
1620715400878,1356485,,1665,1
1620715400878,1356505,,1691,1
1620715400878,1356525,,1711,1
1620715400878,1356545,,1759,1
1620715400878,1356565,,1837,1
1620715400878,1356585,,1899,1
1620715400878,1356605,,2045,1
1620715400878,1356625,,2113,1
1620715401374,1356645,,2112,1
1620715401374,1356665,,2277,1
1620715401374,1356685,,2337,1
1620715401374,1356705,,2357,1
1620715401374,1356725,,2190,0
1620715401374,1356745,,2000,0
1620715401374,1356765,,1862,0
1620715401374,1356785,,1744,0
1620715401374,1356805,,1762,0
1620715401374,1356825,,1754,0
1620715401374,1356845,,1726,0
1620715401374,1356865,,1765,0
1620715401374,1356885,,1879,0
1620715401374,1356905,,2017,0
1620715401374,1356925,,1955,0
1620715401374,1356945,,1824,0
1620715401374,1356965,,1713,0
1620715401374,1356985,,1633,0
1620715401374,1357005,,1645,0
1620715401374,1357025,,1655,0
1620715401374,1357045,,1658,0
1620715401374,1357065,,1655,0
1620715401374,1357085,,1661,0
1620715401374,1357105,,1694,0
1620715401374,1357125,,1739,0
1620715401874,1357145,,1749,0
1620715401874,1357165,,1941,0
1620715401874,1357185,,2136,0
1620715401874,1357205,,2288,0
1620715401874,1357225,,2239,0
1620715401874,1357245,,2155,0
1620715401874,1357265,,2085,0
1620715401874,1357285,,2029,0
1620715401874,1357305,,2000,0
1620715401874,1357325,,2003,0
1620715401874,1357345,,1966,0
1620715401874,1357365,,1911,0
1620715401874,1357385,,1861,0
1620715401874,1357405,,1801,0
1620715401874,1357425,,1855,0
1620715401874,1357445,,1830,0
1620715401874,1357465,,1791,0
1620715401874,1357485,,1759,0
1620715401874,1357505,,1722,0
1620715401874,1357525,,1771,0
1620715401874,1357545,,1757,0
1620715401874,1357565,,1738,0
1620715401874,1357585,,1723,0
1620715401874,1357605,,1680,0
1620715401874,1357625,,1719,0
1620715402376,1357645,,1666,0
1620715402376,1357665,,1761,0
1620715402376,1357685,,1841,0
1620715402376,1357705,,1888,0
1620715402376,1357725,,1872,0
1620715402376,1357745,,1846,0
1620715402376,1357765,,1872,0
1620715402376,1357785,,1936,0
1620715402376,1357805,,2015,0
1620715402376,1357825,,2139,0
1620715402376,1357845,,2193,0
1620715402376,1357865,,2221,0
1620715402376,1357885,,2209,0
1620715402376,1357905,,2181,0
1620715402376,1357926,,2146,0
1620715402376,1357946,,2085,0
1620715402376,1357966,,1973,0
1620715402376,1357986,,1898,0
1620715402376,1358006,,1829,0
1620715402376,1358026,,1791,0
1620715402376,1358046,,1777,0
1620715402376,1358066,,1745,0
1620715402376,1358086,,1728,0
1620715402376,1358106,,1725,0
1620715402376,1358126,,1730,0
1620715402874,1358146,,1703,0
1620715402874,1358166,,1808,0
1620715402874,1358186,,1879,0
1620715402874,1358206,,1917,0
1620715402874,1358226,,1781,0
1620715402874,1358246,,1681,0
1620715402874,1358266,,1569,0
1620715402874,1358286,,1514,0
1620715402874,1358306,,1525,0
1620715402874,1358326,,1564,0
1620715402874,1358346,,1748,0
1620715402874,1358366,,1889,0
1620715402874,1358386,,2000,0
1620715402874,1358406,,2115,0
1620715402874,1358426,,2173,0
1620715402874,1358446,,2291,0
1620715402874,1358466,,2320,0
1620715402874,1358486,,2287,0
1620715402874,1358506,,2226,0
1620715402874,1358526,,2120,0
1620715402874,1358546,,2115,0
1620715402874,1358566,,2022,0
1620715402874,1358586,,1937,0
1620715402874,1358606,,1845,0
1620715402874,1358626,,1779,0
1620715403375,1358646,,1722,0
1620715403375,1358666,,1822,0
1620715403375,1358686,,1899,0
1620715403375,1358706,,1936,0
1620715403375,1358726,,1793,0
1620715403375,1358746,,1709,0
1620715403375,1358766,,1629,0
1620715403375,1358786,,1581,0
1620715403375,1358806,,1535,0
1620715403375,1358826,,1535,0
1620715403375,1358846,,1588,0
1620715403375,1358866,,1616,0
1620715403375,1358886,,1623,0
1620715403375,1358906,,1621,0
1620715403375,1358926,,1627,0
1620715403375,1358946,,1646,0
1620715403375,1358966,,1712,0
1620715403375,1358986,,1781,0
1620715403375,1359006,,1885,0
1620715403375,1359026,,1990,0
1620715403375,1359046,,2079,0
1620715403375,1359066,,2223,0
1620715403375,1359086,,2273,0
1620715403375,1359106,,2289,0
1620715403375,1359126,,2294,0
1620715403877,1359146,,2230,0
1620715403877,1359166,,2288,0
1620715403877,1359186,,2322,0
1620715403877,1359206,,2279,0
1620715403877,1359226,,2067,0
1620715403877,1359246,,1847,0
1620715403877,1359266,,1739,0
1620715403877,1359286,,1648,0
1620715403877,1359306,,1603,0
1620715403877,1359326,,1590,0
1620715403877,1359347,,1577,0
1620715403877,1359367,,1661,0
1620715403877,1359387,,1680,0
1620715403877,1359407,,1686,0
1620715403877,1359427,,1682,0
1620715403877,1359447,,1646,0
1620715403877,1359467,,1684,0
1620715403877,1359487,,1677,0
1620715403877,1359507,,1645,0
1620715403877,1359527,,1618,0
1620715403877,1359547,,1597,0
1620715403877,1359567,,1619,0
1620715403877,1359587,,1616,0
1620715403877,1359607,,1600,0
1620715403877,1359627,,1586,0
1620715404383,1359647,,1535,0
1620715404383,1359667,,1710,0
1620715404383,1359687,,1914,0
1620715404383,1359707,,2105,0
1620715404383,1359727,,2117,0
1620715404383,1359747,,2110,0
1620715404383,1359767,,2113,0
1620715404383,1359788,,2190,0
1620715404383,1359808,,2163,0
1620715404383,1359828,,2128,0
1620715404383,1359848,,2015,0
1620715404383,1359868,,2034,0
1620715404383,1359888,,2112,0
1620715404383,1359908,,2108,0
1620715404383,1359928,,2095,0
1620715404383,1359948,,1901,0
1620715404383,1359968,,1665,0
1620715404383,1359988,,1645,0
1620715404383,1360008,,1696,0
1620715404383,1360028,,1750,0
1620715404383,1360048,,1773,0
1620715404383,1360068,,1808,0
1620715404383,1360088,,1739,0
1620715404383,1360108,,1605,0
1620715404383,1360128,,1498,0
1620715404881,1360148,,1402,0
1620715404881,1360168,,1535,0
1620715404881,1360188,,1649,0
1620715404881,1360208,,1751,0
1620715404881,1360228,,1666,0
1620715404881,1360248,,1567,0
1620715404881,1360268,,1456,0
1620715404881,1360288,,1488,0
1620715404881,1360308,,1503,0
1620715404881,1360328,,1535,0
1620715404881,1360348,,1621,0
1620715404881,1360368,,1724,0
1620715404881,1360389,,1917,0
1620715404881,1360409,,2045,0
1620715404881,1360429,,2123,0
1620715404881,1360449,,2143,0
1620715404881,1360469,,2128,0
1620715404881,1360489,,2163,0
1620715404881,1360509,,2159,0
1620715404881,1360529,,2079,0
1620715404881,1360549,,1983,0
1620715404881,1360569,,1863,0
1620715404881,1360589,,1809,0
1620715404881,1360609,,1731,0
1620715404881,1360629,,1674,0
1620715405385,1360649,,1605,0
1620715405385,1360669,,1750,0
1620715405385,1360689,,1840,0
1620715405385,1360709,,1899,0
1620715405385,1360729,,1761,0
1620715405385,1360749,,1627,0
1620715405385,1360769,,1535,0
1620715405385,1360789,,1498,0
1620715405385,1360809,,1520,0
1620715405385,1360830,,1520,0
1620715405385,1360850,,1535,0
1620715405385,1360870,,1563,0
1620715405385,1360890,,1584,0
1620715405385,1360910,,1632,0
1620715405385,1360930,,1631,0
1620715405385,1360950,,1620,0
1620715405385,1360970,,1623,0
1620715405385,1360990,,1622,0
1620715405385,1361010,,1722,0
1620715405385,1361030,,1804,0
1620715405385,1361050,,1891,0
1620715405385,1361070,,1993,0
1620715405385,1361090,,2059,0
1620715405385,1361110,,2149,0
1620715405385,1361130,,2166,0
1620715405881,1361150,,2097,0
1620715405881,1361170,,2227,0
1620715405881,1361190,,2263,0
1620715405881,1361210,,2223,0
1620715405881,1361230,,2123,0
1620715405881,1361250,,2000,0
1620715405881,1361270,,1874,0
1620715405881,1361290,,1781,0
1620715405881,1361310,,1746,0
1620715405881,1361330,,1597,0
1620715405881,1361350,,1479,0
1620715405881,1361370,,1427,0
1620715405881,1361391,,1424,0
1620715405881,1361411,,1520,0
1620715405881,1361431,,1577,0
1620715405881,1361451,,1614,0
1620715405881,1361471,,1635,0
1620715405881,1361491,,1633,0
1620715405881,1361511,,1677,0
1620715405881,1361531,,1673,0
1620715405881,1361551,,1643,0
1620715405881,1361571,,1615,0
1620715405881,1361591,,1584,0
1620715405881,1361611,,1583,0
1620715405881,1361632,,1587,0
1620715406382,1361652,,1525,0
1620715406382,1361672,,1630,0
1620715406382,1361692,,1747,0
1620715406382,1361712,,1873,0
1620715406382,1361732,,1862,0
1620715406382,1361752,,1853,0
1620715406382,1361772,,1872,0
1620715406382,1361792,,1916,0
1620715406382,1361812,,1968,0
1620715406382,1361832,,2041,0
1620715406382,1361852,,2065,0
1620715406382,1361872,,2067,0
1620715406382,1361892,,2036,0
1620715406382,1361912,,1995,0
1620715406382,1361932,,1970,0
1620715406382,1361952,,1898,0
1620715406382,1361972,,1818,0
1620715406382,1361992,,1760,0
1620715406382,1362012,,1705,0
1620715406382,1362032,,1732,0
1620715406382,1362052,,1698,0
1620715406382,1362072,,1660,0
1620715406382,1362092,,1645,0
1620715406382,1362112,,1602,1
1620715406382,1362132,,1653,1
1620715406885,1362152,,1615,1
1620715406885,1362172,,1716,1
1620715406885,1362192,,1787,1
1620715406885,1362212,,1795,1
1620715406885,1362232,,1712,1
1620715406885,1362252,,1591,1
1620715406885,1362272,,1471,1
1620715406885,1362292,,1402,1
1620715406885,1362312,,1374,1
1620715406885,1362332,,1397,1
1620715406885,1362352,,1397,1
1620715406885,1362372,,1375,1
1620715406885,1362392,,1359,1
1620715406885,1362412,,1354,1
1620715406885,1362432,,1428,1
1620715406885,1362452,,1535,1
1620715406885,1362472,,1677,1
1620715406885,1362492,,1813,1
1620715406885,1362512,,1925,1
1620715406885,1362532,,2013,1
1620715406885,1362552,,2073,1
1620715406885,1362572,,2073,1
1620715406885,1362592,,2033,1
1620715406885,1362612,,1986,1
1620715406885,1362632,,1939,1
1620715407385,1362653,,1872,1
1620715407385,1362673,,1947,1
1620715407385,1362693,,1962,1
1620715407385,1362713,,1957,1
1620715407385,1362733,,1794,1
1620715407385,1362753,,1667,1
1620715407385,1362773,,1567,1
1620715407385,1362793,,1525,1
1620715407385,1362813,,1535,1
1620715407385,1362833,,1582,1
1620715407385,1362853,,1679,1
1620715407385,1362873,,1710,1
1620715407385,1362893,,1711,1
1620715407385,1362913,,1685,1
1620715407385,1362933,,1630,1
1620715407385,1362953,,1647,1
1620715407385,1362973,,1616,1
1620715407385,1362993,,1591,1
1620715407385,1363013,,1572,1
1620715407385,1363033,,1520,1
1620715407385,1363053,,1535,1
1620715407385,1363073,,1504,1
1620715407385,1363093,,1409,1
1620715407385,1363113,,1280,1
1620715407385,1363133,,1137,1
1620715407882,1363153,,1087,1
1620715407882,1363173,,1223,1
1620715407882,1363193,,1403,1
1620715407882,1363213,,1606,1
1620715407882,1363233,,1626,1
1620715407882,1363253,,1681,1
1620715407882,1363273,,1709,1
1620715407882,1363293,,1686,1
1620715407882,1363313,,1673,1
1620715407882,1363333,,1659,1
1620715407882,1363353,,1628,1
1620715407882,1363373,,1535,1
1620715407882,1363393,,1407,1
1620715407882,1363413,,1223,1
1620715407882,1363433,,1014,1
1620715407882,1363453,,878,1
1620715407882,1363473,,878,1
1620715407882,1363493,,1059,1
1620715407882,1363513,,1333,1
1620715407882,1363533,,1651,1
1620715407882,1363553,,1945,0
1620715407882,1363573,,2194,0
1620715407882,1363593,,2234,0
1620715407882,1363613,,2160,0
1620715407882,1363633,,2054,0
1620715408382,1363653,,1941,0
1620715408382,1363673,,2034,0
1620715408382,1363693,,2215,0
1620715408382,1363713,,2429,0
1620715408382,1363733,,2489,0
1620715408382,1363753,,2535,0
1620715408382,1363773,,2666,0
1620715408382,1363793,,2693,0
1620715408382,1363813,,2679,0
1620715408382,1363833,,2621,0
1620715408382,1363853,,2507,0
1620715408382,1363873,,2432,0
1620715408382,1363893,,2277,0
1620715408382,1363914,,2128,0
1620715408382,1363934,,2084,0
1620715408382,1363954,,2086,0
1620715408382,1363974,,2224,0
1620715408382,1363994,,2275,0
1620715408382,1364014,,2285,0
1620715408382,1364034,,2271,0
1620715408382,1364054,,2227,0
1620715408382,1364074,,2277,0
1620715408382,1364094,,2288,0
1620715408382,1364114,,2334,0
1620715408382,1364134,,2443,0
1620715408887,1364154,,2546,0
1620715408887,1364174,,2903,0
1620715408887,1364194,,3341,0
1620715408887,1364214,,3735,0
1620715408887,1364234,,3657,0
1620715408887,1364254,,3423,0
1620715408887,1364274,,3249,0
1620715408887,1364294,,3123,0
1620715408887,1364314,,2974,0
1620715408887,1364334,,2870,0
1620715408887,1364354,,2768,0
1620715408887,1364374,,2687,0
1620715408887,1364394,,2618,0
1620715408887,1364414,,2513,0
1620715408887,1364434,,2452,0
1620715408887,1364454,,2416,0
1620715408887,1364474,,2431,0
1620715408887,1364494,,2475,0
1620715408887,1364514,,2420,0
1620715408887,1364534,,2289,0
1620715408887,1364554,,2127,1
1620715408887,1364574,,1957,1
1620715408887,1364594,,1834,1
1620715408887,1364614,,1680,1
1620715408887,1364634,,1563,1
1620715409388,1364654,,1445,1
1620715409388,1364674,,1497,1
1620715409388,1364694,,1600,1
1620715409388,1364714,,1647,1
1620715409388,1364734,,1703,1
1620715409388,1364754,,1605,1
1620715409388,1364774,,1427,1
1620715409388,1364794,,1427,1
1620715409388,1364814,,1411,1
1620715409388,1364834,,1417,1
1620715409388,1364854,,1431,1
1620715409388,1364874,,1455,1
1620715409388,1364894,,1535,1
1620715409388,1364914,,1607,1
1620715409388,1364934,,1629,1
1620715409388,1364954,,1633,1
1620715409388,1364974,,1601,1
1620715409388,1364994,,1495,1
1620715409388,1365014,,1232,1
1620715409388,1365034,,843,1
1620715409388,1365054,,362,1
1620715409388,1365074,,0,1
1620715409388,1365094,,0,1
1620715409388,1365114,,0,1
1620715409388,1365134,,0,1
1620715409893,1365154,,0,1
1620715409893,1365174,,259,1
1620715409893,1365194,,787,1
1620715409893,1365214,,1233,1
1620715409893,1365234,,1420,1
1620715409893,1365254,,1558,1
1620715409893,1365274,,1723,1
1620715409893,1365294,,1911,1
1620715409893,1365314,,2119,1
1620715409893,1365334,,2272,1
1620715409893,1365354,,2389,1
1620715409893,1365374,,2512,1
1620715409893,1365394,,2742,1
1620715409893,1365414,,3275,0
1620715409893,1365434,,3866,0
1620715409893,1365454,,3871,0
1620715409893,1365475,,3863,0
1620715409893,1365495,,3871,0
1620715409893,1365516,,3870,0
1620715409893,1365536,,3870,0
1620715409893,1365557,,3872,0
1620715409893,1365577,,3871,0
1620715409893,1365597,,3227,0
1620715409893,1365617,,2559,0
1620715409893,1365637,,2095,0
1620715410388,1365657,,1718,0
1620715410388,1365677,,1712,0
1620715410388,1365697,,1727,0
1620715410388,1365717,,1799,0
1620715410388,1365737,,1735,0
1620715410388,1365757,,1673,0
1620715410388,1365778,,1643,0
1620715410388,1365798,,1633,0
1620715410388,1365818,,1733,0
1620715410388,1365838,,1769,0
1620715410388,1365858,,1790,0
1620715410388,1365879,,1801,0
1620715410388,1365899,,1805,0
1620715410388,1365919,,1918,0
1620715410388,1365939,,1981,0
1620715410388,1365959,,2023,0
1620715410388,1365979,,2064,0
1620715410388,1365999,,2041,0
1620715410388,1366019,,2073,0
1620715410388,1366040,,2044,0
1620715410388,1366060,,2016,0
1620715410388,1366080,,1985,0
1620715410388,1366100,,1953,0
1620715410388,1366120,,1965,0
1620715410388,1366140,,1941,0
1620715410894,1366160,,1854,0
1620715410894,1366180,,1914,0
1620715410894,1366200,,1968,0
1620715410894,1366220,,2033,0
1620715410894,1366240,,1938,0
1620715410894,1366261,,1815,0
1620715410894,1366281,,1730,0
1620715410894,1366301,,1681,0
1620715410894,1366321,,1680,0
1620715410894,1366341,,1694,0
1620715410894,1366361,,1687,0
1620715410894,1366381,,1698,0
1620715410894,1366401,,1692,0
1620715410894,1366421,,1697,1
1620715410894,1366442,,1739,1
1620715410894,1366462,,1733,1
1620715410894,1366482,,1742,1
1620715410894,1366503,,1779,1
1620715410894,1366523,,1811,1
1620715410894,1366543,,1952,1
1620715410894,1366563,,1964,1
1620715410894,1366583,,1944,1
1620715410894,1366603,,1914,1
1620715410894,1366623,,1882,1
1620715410894,1366643,,1894,1
1620715411397,1366664,,1837,1
1620715411397,1366684,,1937,1
1620715411397,1366704,,2038,1
1620715411397,1366724,,2112,1
1620715411397,1366744,,2045,1
1620715411397,1366764,,1941,1
1620715411397,1366784,,1859,1
1620715411397,1366804,,1819,1
1620715411397,1366824,,1789,1
1620715411397,1366844,,1845,1
1620715411397,1366864,,1870,1
1620715411397,1366884,,1859,1
1620715411397,1366904,,1840,1
1620715411397,1366924,,1789,1
1620715411397,1366944,,1820,1
1620715411397,1366964,,1808,1
1620715411397,1366984,,1773,1
1620715411397,1367004,,1742,1
1620715411397,1367024,,1691,1
1620715411397,1367045,,1730,1
1620715411397,1367065,,1717,1
1620715411397,1367086,,1686,1
1620715411397,1367106,,1663,1
1620715411397,1367127,,1626,1
1620715411397,1367147,,1673,1
1620715416414,1371686,,2907,0
1620715416414,1371706,,3251,0
1620715416414,1371726,,3669,1
1620715416414,1371746,,3705,1
1620715416414,1371766,,3251,1
1620715416414,1371786,,2592,1
1620715416414,1371806,,2057,1
1620715416414,1371826,,1611,1
1620715416414,1371846,,1311,1
1620715416414,1371866,,1185,1
1620715416414,1371886,,1139,1
1620715416414,1371906,,1199,1
1620715416414,1371926,,1329,1
1620715416414,1371946,,1495,1
1620715416414,1371966,,1712,1
1620715416414,1371986,,1887,1
1620715416414,1372006,,2003,1
1620715416414,1372026,,2077,1
1620715416414,1372046,,2057,1
1620715416414,1372066,,2145,1
1620715416414,1372086,,2127,1
1620715416414,1372106,,2079,1
1620715416414,1372126,,2011,1
1620715416414,1372146,,1925,1
1620715416414,1372166,,1930,1
1620715416920,1372186,,1833,1
1620715416920,1372206,,1872,1
1620715416920,1372227,,1932,1
1620715416920,1372247,,1935,1
1620715416920,1372267,,1886,1
1620715416920,1372287,,1776,1
1620715416920,1372307,,1693,1
1620715416920,1372327,,1660,1
1620715416920,1372347,,1638,1
1620715416920,1372368,,1708,1
1620715416920,1372388,,1735,1
1620715416920,1372408,,1741,1
1620715416920,1372428,,1735,1
1620715416920,1372448,,1707,1
1620715416920,1372468,,1694,1
1620715416920,1372488,,1676,1
1620715416920,1372508,,1671,1
1620715416920,1372528,,1682,1
1620715416920,1372549,,1696,1
1620715416920,1372569,,1746,1
1620715416920,1372589,,1793,1
1620715416920,1372610,,1778,1
1620715416920,1372630,,1817,1
1620715416920,1372650,,1910,1
1620715416920,1372670,,2102,1
1620715417420,1372690,,2230,1
1620715417420,1372710,,2406,1
1620715417420,1372730,,2467,1
1620715417420,1372750,,2507,1
1620715417420,1372771,,2329,1
1620715417420,1372791,,2179,1
1620715417420,1372811,,2032,1
1620715417420,1372831,,1931,1
1620715417420,1372851,,1890,1
1620715417420,1372871,,1905,1
1620715417420,1372891,,1969,1
1620715417420,1372911,,1973,1
1620715417420,1372931,,1959,1
1620715417420,1372951,,1968,1
1620715417420,1372971,,1989,1
1620715417420,1372991,,2114,1
1620715417420,1373011,,2297,1
1620715417420,1373031,,2559,1
1620715417420,1373051,,2864,1
1620715417420,1373071,,3106,0
1620715417420,1373091,,3403,0
1620715417420,1373111,,3485,0
1620715417420,1373131,,3376,0
1620715417420,1373151,,3161,0
1620715417420,1373171,,2859,0
1620715417923,1373191,,2645,0
1620715417923,1373211,,2544,0
1620715417923,1373231,,2480,0
1620715417923,1373251,,2366,0
1620715417923,1373271,,2067,0
1620715417923,1373291,,1883,0
1620715417923,1373311,,1663,0
1620715417923,1373331,,1485,0
1620715417923,1373351,,1360,0
1620715417923,1373371,,1274,0
1620715417923,1373391,,1264,0
1620715417923,1373411,,1267,0
1620715417923,1373432,,1279,0
1620715417923,1373452,,1299,0
1620715417923,1373472,,1328,0
1620715417923,1373492,,1411,0
1620715417923,1373512,,1482,0
1620715417923,1373532,,1535,0
1620715417923,1373552,,1584,0
1620715417923,1373572,,1621,0
1620715417923,1373593,,1666,0
1620715417923,1373613,,1710,0
1620715417923,1373633,,1715,0
1620715417923,1373653,,1715,0
1620715417923,1373673,,1712,0
1620715418438,1373694,,1673,0
1620715418438,1373714,,1787,0
1620715418438,1373734,,1861,0
1620715418438,1373754,,1904,0
1620715418438,1373774,,1772,0
1620715418438,1373794,,1673,0
1620715418438,1373814,,1675,0
1620715418438,1373835,,1700,0
1620715418438,1373855,,1747,0
1620715418438,1373875,,1827,0
1620715418438,1373895,,1903,0
1620715418438,1373915,,1978,0
1620715418438,1373935,,2000,0
1620715418438,1373955,,1999,0
1620715418438,1373975,,1986,0
1620715418438,1373995,,1953,0
1620715418438,1374015,,1970,0
1620715418438,1374035,,1936,0
1620715418438,1374055,,1888,0
1620715418438,1374076,,1851,1
1620715418438,1374096,,1821,1
1620715418438,1374116,,1852,1
1620715418438,1374136,,1839,1
1620715418438,1374156,,1822,1
1620715418438,1374176,,1808,1
1620715418930,1374196,,1753,1
1620715418930,1374216,,1843,1
1620715418930,1374236,,1927,1
1620715418930,1374256,,1999,1
1620715418930,1374276,,1906,1
1620715418930,1374296,,1703,1
1620715418930,1374316,,1631,1
1620715418930,1374336,,1563,1
1620715418930,1374356,,1520,1
1620715418930,1374376,,1521,1
1620715418930,1374396,,1530,1
1620715418930,1374416,,1616,1
1620715418930,1374436,,1645,1
1620715418930,1374456,,1650,1
1620715418930,1374476,,1687,1
1620715418930,1374496,,1727,1
1620715418930,1374516,,1833,1
1620715418930,1374536,,1908,1
1620715418930,1374556,,1947,1
1620715418930,1374576,,1967,1
1620715418930,1374596,,1967,1
1620715418930,1374617,,1968,1
1620715418930,1374638,,1967,1
1620715418930,1374658,,1936,1
1620715418930,1374678,,1909,1
1620715419431,1374698,,1835,1
1620715419431,1374718,,1917,1
1620715419431,1374738,,1977,1
1620715419431,1374758,,2032,1
1620715419431,1374778,,1904,1
1620715419431,1374798,,1776,1
1620715419431,1374818,,1707,1
1620715419431,1374838,,1728,1
1620715419431,1374858,,1702,1
1620715419431,1374878,,1681,1
1620715419431,1374899,,1680,1
1620715419431,1374919,,1685,1
1620715419431,1374939,,1727,1
1620715419431,1374960,,1724,1
1620715419431,1374980,,1718,1
1620715419431,1375001,,1706,1
1620715419431,1375021,,1684,1
1620715419431,1375041,,1702,1
1620715419431,1375061,,1680,1
1620715419431,1375081,,1664,0
1620715419431,1375101,,1669,0
1620715419431,1375121,,1686,0
1620715419431,1375141,,1790,0
1620715419431,1375162,,1854,0
1620715419431,1375182,,1900,0
1620715419942,1375202,,1893,0
1620715419942,1375222,,2004,0
1620715419942,1375242,,2114,0
1620715419942,1375262,,2169,0
1620715419942,1375283,,2033,0
1620715419942,1375303,,1888,0
1620715419942,1375324,,1771,0
1620715419942,1375344,,1771,0
1620715419942,1375364,,1744,0
1620715419942,1375384,,1735,0
1620715419942,1375404,,1744,0
1620715419942,1375424,,1728,0
1620715419942,1375444,,1808,0
1620715419942,1375464,,1815,0
1620715419942,1375484,,1810,0
1620715419942,1375505,,1789,0
1620715419942,1375525,,1743,0
1620715419942,1375545,,1789,0
1620715419942,1375566,,1769,0
1620715419942,1375586,,1733,0
1620715419942,1375606,,1707,0
1620715419942,1375627,,1665,0
1620715419942,1375647,,1710,0
1620715419942,1375667,,1701,0
1620715419942,1375688,,1680,0
1620715420441,1375708,,1601,0
1620715420441,1375728,,1762,0
1620715420441,1375748,,1868,0
1620715420441,1375768,,1966,0
1620715420441,1375788,,1903,0
1620715420441,1375808,,1847,0
1620715420441,1375828,,1815,0
1620715420441,1375848,,1856,0
1620715420441,1375868,,1883,0
1620715420441,1375888,,1896,0
1620715420441,1375908,,1906,0
1620715420441,1375928,,1918,0
1620715420441,1375948,,1962,0
1620715420441,1375968,,1970,0
1620715420441,1375988,,1946,0
1620715420441,1376008,,1910,0
1620715420441,1376028,,1867,0
1620715420441,1376049,,1840,0
1620715420441,1376069,,1839,0
1620715420441,1376090,,1808,0
1620715420441,1376110,,1764,0
1620715420441,1376131,,1746,0
1620715420441,1376151,,1745,0
1620715420441,1376171,,1746,0
1620715420441,1376192,,1735,0
1620715420947,1376212,,1669,0
1620715420947,1376232,,1798,0
1620715420947,1376252,,1919,1
1620715420947,1376272,,1995,1
1620715420947,1376292,,1881,1
1620715420947,1376312,,1744,1
1620715420947,1376332,,1618,1
1620715420947,1376352,,1520,1
1620715420947,1376372,,1495,1
1620715420947,1376393,,1488,1
1620715420947,1376413,,1535,1
1620715420947,1376433,,1646,1
1620715420947,1376453,,1769,1
1620715420947,1376473,,1920,1
1620715420947,1376494,,2000,1
1620715420947,1376514,,2039,1
1620715420947,1376535,,2039,0
1620715420947,1376555,,2038,0
1620715420947,1376576,,2061,0
1620715420947,1376596,,2005,0
1620715420947,1376616,,1961,0
1620715420947,1376636,,1903,0
1620715420947,1376656,,1844,0
1620715420947,1376677,,1847,0
1620715420947,1376697,,1806,0
1620715421450,1376717,,1735,0
1620715421450,1376737,,1827,0
1620715421450,1376757,,1922,0
1620715421450,1376777,,1977,0
1620715421450,1376797,,1845,0
1620715421450,1376817,,1714,0
1620715421450,1376838,,1643,0
1620715421450,1376858,,1573,0
1620715421450,1376878,,1630,0
1620715421450,1376898,,1642,0
1620715421450,1376918,,1650,0
1620715421450,1376938,,1650,0
1620715421450,1376958,,1619,0
1620715421450,1376978,,1676,0
1620715421450,1376998,,1680,0
1620715421450,1377019,,1666,0
1620715421450,1377039,,1652,0
1620715421450,1377059,,1623,0
1620715421450,1377080,,1699,0
1620715421450,1377100,,1760,0
1620715421450,1377120,,1821,0
1620715421450,1377140,,1904,0
1620715421450,1377160,,1952,0
1620715421450,1377180,,2039,0
1620715421450,1377200,,2076,0
1620715421959,1377220,,2030,0
1620715421959,1377240,,2122,0
1620715421959,1377260,,2175,0
1620715421959,1377280,,2224,0
1620715421959,1377300,,2069,0
1620715421959,1377320,,1902,0
1620715421959,1377340,,1777,0
1620715421959,1377360,,1709,0
1620715421959,1377381,,1696,0
1620715421959,1377401,,1705,0
1620715421959,1377422,,1717,0
1620715421959,1377442,,1738,0
1620715421959,1377463,,1742,0
1620715421959,1377484,,1767,0
1620715421959,1377504,,1783,0
1620715421959,1377525,,1769,0
1620715421959,1377545,,1747,0
1620715421959,1377565,,1721,0
1620715421959,1377585,,1712,0
1620715421959,1377606,,1712,0
1620715421959,1377626,,1687,0
1620715421959,1377647,,1666,0
1620715421959,1377668,,1655,0
1620715421959,1377689,,1671,0
1620715421959,1377710,,1685,0
1620715422464,1377730,,1636,0
1620715422464,1377750,,1735,0
1620715422464,1377770,,1875,0
1620715422464,1377790,,2012,0
1620715422464,1377810,,1975,0
1620715422464,1377830,,1917,0
1620715422464,1377850,,1869,0
1620715422464,1377870,,1840,0
1620715422464,1377891,,1845,0
1620715422464,1377912,,1879,0
1620715422464,1377932,,1870,0
1620715422464,1377953,,1857,0
1620715422464,1377973,,1859,0
1620715422464,1377993,,1857,0
1620715422464,1378013,,1860,0
1620715422464,1378033,,1840,0
1620715422464,1378054,,1809,0
1620715422464,1378074,,1787,0
1620715422464,1378094,,1774,0
1620715422464,1378115,,1786,0
1620715422464,1378135,,1769,0
1620715422464,1378155,,1745,0
1620715422464,1378175,,1725,0
1620715422464,1378195,,1712,0
1620715422464,1378215,,1747,0
1620715422970,1378236,,1707,0
1620715422970,1378256,,1799,0
1620715422970,1378276,,1871,0
1620715422970,1378296,,1894,0
1620715422970,1378316,,1793,0
1620715422970,1378336,,1665,1
1620715422970,1378357,,1577,1
1620715422970,1378377,,1535,1
1620715422970,1378398,,1559,1
1620715422970,1378418,,1664,1
1620715422970,1378438,,1759,1
1620715422970,1378458,,1846,1
1620715422970,1378478,,1938,1
1620715422970,1378498,,1969,1
1620715422970,1378519,,2034,1
1620715422970,1378539,,2019,1
1620715422970,1378560,,1970,1
1620715422970,1378581,,1936,1
1620715422970,1378601,,1890,1
1620715422970,1378621,,1909,1
1620715422970,1378642,,1863,1
1620715422970,1378662,,1821,1
1620715422970,1378682,,1781,1
1620715422970,1378702,,1747,1
1620715422970,1378722,,1794,1
1620715423475,1378743,,1739,1
1620715423475,1378763,,1825,1
1620715423475,1378783,,1914,1
1620715423475,1378803,,1919,1
1620715423475,1378824,,1837,1
1620715423475,1378844,,1697,1
1620715423475,1378864,,1616,1
1620715423475,1378884,,1566,1
1620715423475,1378904,,1525,1
1620715423475,1378924,,1604,1
1620715423475,1378944,,1622,1
1620715423475,1378964,,1641,1
1620715423475,1378984,,1655,1
1620715423475,1379004,,1629,1
1620715423475,1379024,,1682,1
1620715423475,1379044,,1703,1
1620715423475,1379064,,1727,1
1620715423475,1379084,,1781,1
1620715423475,1379104,,1846,1
1620715423475,1379124,,1947,1
1620715423475,1379144,,2006,0
1620715423475,1379164,,2032,0
1620715423475,1379185,,2032,0
1620715423475,1379206,,2010,0
1620715423475,1379227,,2026,0
1620715423988,1379248,,1971,0
1620715423988,1379268,,2035,0
1620715423988,1379289,,2109,0
1620715423988,1379310,,2074,0
1620715423988,1379330,,1931,0
1620715423988,1379351,,1781,0
1620715423988,1379371,,1680,0
1620715423988,1379391,,1630,0
1620715423988,1379412,,1621,0
1620715423988,1379432,,1680,0
1620715423988,1379452,,1723,0
1620715423988,1379472,,1744,0
1620715423988,1379492,,1734,0
1620715423988,1379513,,1712,0
1620715423988,1379534,,1740,0
1620715423988,1379555,,1735,0
1620715423988,1379576,,1711,0
1620715423988,1379596,,1677,0
1620715423988,1379616,,1644,0
1620715423988,1379636,,1656,0
1620715423988,1379657,,1665,0
1620715423988,1379678,,1627,0
1620715423988,1379698,,1601,0
1620715423988,1379718,,1605,0
1620715423988,1379738,,1681,0
1620715424496,1379758,,1725,0
1620715424496,1379778,,1938,0
1620715424496,1379798,,2107,0
1620715424496,1379818,,2223,0
1620715424496,1379839,,2131,0
1620715424496,1379860,,2005,0
1620715424496,1379880,,1911,0
1620715424496,1379901,,1846,0
1620715424496,1379921,,1819,0
1620715424496,1379941,,1826,0
1620715424496,1379961,,1836,0
1620715424496,1379981,,1824,0
1620715424496,1380002,,1807,0
1620715424496,1380022,,1786,0
1620715424496,1380042,,1786,0
1620715424496,1380062,,1801,0
1620715424496,1380082,,1786,0
1620715424496,1380103,,1765,0
1620715424496,1380123,,1744,0
1620715424496,1380144,,1733,0
1620715424496,1380165,,1735,1
1620715424496,1380186,,1715,1
1620715424496,1380206,,1695,1
1620715424496,1380226,,1676,1
1620715424496,1380246,,1668,1
1620715425004,1380266,,1633,1
1620715425004,1380286,,1713,1
1620715425004,1380307,,1801,1
1620715425004,1380327,,1835,1
1620715425004,1380347,,1712,1
1620715425004,1380368,,1604,1
1620715425004,1380388,,1498,1
1620715425004,1380408,,1437,1
1620715425004,1380429,,1439,1
1620715425004,1380449,,1509,1
1620715425004,1380469,,1641,1
1620715425004,1380489,,1734,1
1620715425004,1380509,,1808,1
1620715425004,1380530,,1891,1
1620715425004,1380550,,1970,1
1620715425004,1380570,,2128,0
1620715425004,1380590,,2198,0
1620715425004,1380611,,2224,0
1620715425004,1380632,,2224,0
1620715425004,1380653,,2194,0
1620715425004,1380674,,2171,0
1620715425004,1380694,,2101,0
1620715425004,1380714,,2041,0
1620715425004,1380735,,1991,0
1620715425004,1380755,,1946,0
1620715425513,1380775,,1922,0
1620715425513,1380795,,2032,0
1620715425513,1380815,,2156,0
1620715425513,1380836,,2241,0
1620715425513,1380856,,2128,0
1620715425513,1380876,,2075,0
1620715425513,1380896,,2059,0
1620715425513,1380917,,2075,0
1620715425513,1380937,,2096,0
1620715425513,1380958,,2106,0
1620715425513,1380978,,2160,0
1620715425513,1380999,,2160,0
1620715425513,1381019,,2161,0
1620715425513,1381040,,2179,0
1620715425513,1381060,,2199,0
1620715425513,1381081,,2288,0
1620715425513,1381101,,2311,0
1620715425513,1381122,,2335,0
1620715425513,1381142,,2339,0
1620715425513,1381162,,2313,0
1620715425513,1381183,,2329,0
1620715425513,1381203,,2289,0
1620715425513,1381224,,2255,0
1620715425513,1381244,,2214,0
1620715425513,1381264,,2159,0
1620715426020,1381285,,2117,0
1620715426020,1381305,,2182,0
1620715426020,1381326,,2252,0
1620715426020,1381346,,2263,0
1620715426020,1381366,,2113,0
1620715426020,1381386,,2027,0
1620715426020,1381407,,1936,0
1620715426020,1381427,,1887,0
1620715426020,1381447,,1879,0
1620715426020,1381467,,1881,0
1620715426020,1381487,,1970,0
1620715426020,1381508,,2010,0
1620715426020,1381528,,2025,0
1620715426020,1381548,,2026,0
1620715426020,1381568,,1991,0
1620715426020,1381588,,2038,1
1620715426020,1381608,,2027,1
1620715426020,1381628,,1997,1
1620715426020,1381649,,1983,1
1620715426020,1381670,,1942,1
1620715426020,1381691,,1987,1
1620715426020,1381711,,1985,1
1620715426020,1381731,,1965,1
1620715426020,1381751,,1955,1
1620715426020,1381771,,1922,1
1620715426527,1381791,,1939,1
1620715426527,1381811,,2044,1
1620715426527,1381831,,2140,1
1620715426527,1381851,,2187,1
1620715426527,1381872,,2011,1
1620715426527,1381893,,1915,1
1620715426527,1381913,,1819,1
1620715426527,1381933,,1743,1
1620715426527,1381954,,1701,1
1620715426527,1381974,,1666,1
1620715426527,1381994,,1727,1
1620715426527,1382014,,1754,1
1620715426527,1382034,,1765,1
1620715426527,1382054,,1771,1
1620715426527,1382074,,1759,1
1620715426527,1382095,,1787,1
1620715426527,1382115,,1783,1
1620715426527,1382135,,1762,1
1620715426527,1382155,,1749,1
1620715426527,1382175,,1743,1
1620715426527,1382195,,1759,1
1620715426527,1382215,,1783,1
1620715426527,1382235,,1780,1
1620715426527,1382255,,1776,1
1620715426527,1382275,,1776,1
1620715427031,1382296,,1761,1
1620715427031,1382316,,1907,1
1620715427031,1382336,,2027,1
1620715427031,1382356,,2123,1
1620715427031,1382376,,2031,1
1620715427031,1382396,,1936,1
1620715427031,1382416,,1884,1
1620715427031,1382436,,1832,1
1620715427031,1382456,,1795,1
1620715427031,1382476,,1787,1
1620715427031,1382496,,1789,1
1620715427031,1382516,,1840,1
1620715427031,1382536,,1857,1
1620715427031,1382556,,1853,1
1620715427031,1382576,,1871,1
1620715427031,1382596,,2005,1
1620715427031,1382616,,2079,1
1620715427031,1382636,,2083,1
1620715427031,1382657,,2079,1
1620715427031,1382677,,2013,1
1620715427031,1382698,,1830,1
1620715427031,1382718,,1834,1
1620715427031,1382738,,1807,1
1620715427031,1382758,,1808,1
1620715427031,1382778,,1838,1
1620715421959,1377220,,2030,0
1620715421959,1377240,,2122,0
1620715421959,1377260,,2175,0
1620715421959,1377280,,2224,0
1620715421959,1377300,,2069,0
1620715421959,1377320,,1902,0
1620715421959,1377340,,1777,0
1620715421959,1377360,,1709,0
1620715421959,1377381,,1696,0
1620715421959,1377401,,1705,0
1620715421959,1377422,,1717,0
1620715421959,1377442,,1738,0
1620715421959,1377463,,1742,0
1620715421959,1377484,,1767,0
1620715421959,1377504,,1783,0
1620715421959,1377525,,1769,0
1620715421959,1377545,,1747,0
1620715421959,1377565,,1721,0
1620715421959,1377585,,1712,0
1620715421959,1377606,,1712,0
1620715421959,1377626,,1687,0
1620715421959,1377647,,1666,0
1620715421959,1377668,,1655,0
1620715421959,1377689,,1671,0
1620715421959,1377710,,1685,0
1620715422464,1377730,,1636,0
1620715422464,1377750,,1735,0
1620715422464,1377770,,1875,0
1620715422464,1377790,,2012,0
1620715422464,1377810,,1975,0
1620715422464,1377830,,1917,0
1620715422464,1377850,,1869,0
1620715422464,1377870,,1840,0
1620715422464,1377891,,1845,0
1620715422464,1377912,,1879,0
1620715422464,1377932,,1870,0
1620715422464,1377953,,1857,0
1620715422464,1377973,,1859,0
1620715422464,1377993,,1857,0
1620715422464,1378013,,1860,0
1620715422464,1378033,,1840,0
1620715422464,1378054,,1809,0
1620715422464,1378074,,1787,0
1620715422464,1378094,,1774,0
1620715422464,1378115,,1786,0
1620715422464,1378135,,1769,0
1620715422464,1378155,,1745,0
1620715422464,1378175,,1725,0
1620715422464,1378195,,1712,0
1620715422464,1378215,,1747,0
1620715422970,1378236,,1707,0
1620715422970,1378256,,1799,0
1620715422970,1378276,,1871,0
1620715422970,1378296,,1894,0
1620715422970,1378316,,1793,0
1620715422970,1378336,,1665,1
1620715422970,1378357,,1577,1
1620715422970,1378377,,1535,1
1620715422970,1378398,,1559,1
1620715422970,1378418,,1664,1
1620715422970,1378438,,1759,1
1620715422970,1378458,,1846,1
1620715422970,1378478,,1938,1
1620715422970,1378498,,1969,1
1620715422970,1378519,,2034,1
1620715422970,1378539,,2019,1
1620715422970,1378560,,1970,1
1620715422970,1378581,,1936,1
1620715422970,1378601,,1890,1
1620715422970,1378621,,1909,1
1620715422970,1378642,,1863,1
1620715422970,1378662,,1821,1
1620715422970,1378682,,1781,1
1620715422970,1378702,,1747,1
1620715422970,1378722,,1794,1
1620715423475,1378743,,1739,1
1620715423475,1378763,,1825,1
1620715423475,1378783,,1914,1
1620715423475,1378803,,1919,1
1620715423475,1378824,,1837,1
1620715423475,1378844,,1697,1
1620715423475,1378864,,1616,1
1620715423475,1378884,,1566,1
1620715423475,1378904,,1525,1
1620715423475,1378924,,1604,1
1620715423475,1378944,,1622,1
1620715423475,1378964,,1641,1
1620715423475,1378984,,1655,1
1620715423475,1379004,,1629,1
1620715423475,1379024,,1682,1
1620715423475,1379044,,1703,1
1620715423475,1379064,,1727,1
1620715423475,1379084,,1781,1
1620715423475,1379104,,1846,1
1620715423475,1379124,,1947,1
1620715423475,1379144,,2006,0
1620715423475,1379164,,2032,0
1620715423475,1379185,,2032,0
1620715423475,1379206,,2010,0
1620715423475,1379227,,2026,0
1620715423988,1379248,,1971,0
1620715423988,1379268,,2035,0
1620715423988,1379289,,2109,0
1620715423988,1379310,,2074,0
1620715423988,1379330,,1931,0
1620715423988,1379351,,1781,0
1620715423988,1379371,,1680,0
1620715423988,1379391,,1630,0
1620715423988,1379412,,1621,0
1620715423988,1379432,,1680,0
1620715423988,1379452,,1723,0
1620715423988,1379472,,1744,0
1620715423988,1379492,,1734,0
1620715423988,1379513,,1712,0
1620715423988,1379534,,1740,0
1620715423988,1379555,,1735,0
1620715423988,1379576,,1711,0
1620715423988,1379596,,1677,0
1620715423988,1379616,,1644,0
1620715423988,1379636,,1656,0
1620715423988,1379657,,1665,0
1620715423988,1379678,,1627,0
1620715423988,1379698,,1601,0
1620715423988,1379718,,1605,0
1620715423988,1379738,,1681,0
1620715424496,1379758,,1725,0
1620715424496,1379778,,1938,0
1620715424496,1379798,,2107,0
1620715424496,1379818,,2223,0
1620715424496,1379839,,2131,0
1620715424496,1379860,,2005,0
1620715424496,1379880,,1911,0
1620715424496,1379901,,1846,0
1620715424496,1379921,,1819,0
1620715424496,1379941,,1826,0
1620715424496,1379961,,1836,0
1620715424496,1379981,,1824,0
1620715424496,1380002,,1807,0
1620715424496,1380022,,1786,0
1620715424496,1380042,,1786,0
1620715424496,1380062,,1801,0
1620715424496,1380082,,1786,0
1620715424496,1380103,,1765,0
1620715424496,1380123,,1744,0
1620715424496,1380144,,1733,0
1620715424496,1380165,,1735,1
1620715424496,1380186,,1715,1
1620715424496,1380206,,1695,1
1620715424496,1380226,,1676,1
1620715424496,1380246,,1668,1
1620715425004,1380266,,1633,1
1620715425004,1380286,,1713,1
1620715425004,1380307,,1801,1
1620715425004,1380327,,1835,1
1620715425004,1380347,,1712,1
1620715425004,1380368,,1604,1
1620715425004,1380388,,1498,1
1620715425004,1380408,,1437,1
1620715425004,1380429,,1439,1
1620715425004,1380449,,1509,1
1620715425004,1380469,,1641,1
1620715425004,1380489,,1734,1
1620715425004,1380509,,1808,1
1620715425004,1380530,,1891,1
1620715425004,1380550,,1970,1
1620715425004,1380570,,2128,0
1620715425004,1380590,,2198,0
1620715425004,1380611,,2224,0
1620715425004,1380632,,2224,0
1620715425004,1380653,,2194,0
1620715425004,1380674,,2171,0
1620715425004,1380694,,2101,0
1620715425004,1380714,,2041,0
1620715425004,1380735,,1991,0
1620715425004,1380755,,1946,0
1620715425513,1380775,,1922,0
1620715425513,1380795,,2032,0
1620715425513,1380815,,2156,0
1620715425513,1380836,,2241,0
1620715425513,1380856,,2128,0
1620715425513,1380876,,2075,0
1620715425513,1380896,,2059,0
1620715425513,1380917,,2075,0
1620715425513,1380937,,2096,0
1620715425513,1380958,,2106,0
1620715425513,1380978,,2160,0
1620715425513,1380999,,2160,0
1620715425513,1381019,,2161,0
1620715425513,1381040,,2179,0
1620715425513,1381060,,2199,0
1620715425513,1381081,,2288,0
1620715425513,1381101,,2311,0
1620715425513,1381122,,2335,0
1620715425513,1381142,,2339,0
1620715425513,1381162,,2313,0
1620715425513,1381183,,2329,0
1620715425513,1381203,,2289,0
1620715425513,1381224,,2255,0
1620715425513,1381244,,2214,0
1620715425513,1381264,,2159,0
1620715426020,1381285,,2117,0
1620715426020,1381305,,2182,0
1620715426020,1381326,,2252,0
1620715426020,1381346,,2263,0
1620715426020,1381366,,2113,0
1620715426020,1381386,,2027,0
1620715426020,1381407,,1936,0
1620715426020,1381427,,1887,0
1620715426020,1381447,,1879,0
1620715426020,1381467,,1881,0
1620715426020,1381487,,1970,0
1620715426020,1381508,,2010,0
1620715426020,1381528,,2025,0
1620715426020,1381548,,2026,0
1620715426020,1381568,,1991,0
1620715426020,1381588,,2038,1
1620715426020,1381608,,2027,1
1620715426020,1381628,,1997,1
1620715426020,1381649,,1983,1
1620715426020,1381670,,1942,1
1620715426020,1381691,,1987,1
1620715426020,1381711,,1985,1
1620715426020,1381731,,1965,1
1620715426020,1381751,,1955,1
1620715426020,1381771,,1922,1
1620715426527,1381791,,1939,1
1620715426527,1381811,,2044,1
1620715426527,1381831,,2140,1
1620715426527,1381851,,2187,1
1620715426527,1381872,,2011,1
1620715426527,1381893,,1915,1
1620715426527,1381913,,1819,1
1620715426527,1381933,,1743,1
1620715426527,1381954,,1701,1
1620715426527,1381974,,1666,1
1620715426527,1381994,,1727,1
1620715426527,1382014,,1754,1
1620715426527,1382034,,1765,1
1620715426527,1382054,,1771,1
1620715426527,1382074,,1759,1
1620715426527,1382095,,1787,1
1620715426527,1382115,,1783,1
1620715426527,1382135,,1762,1
1620715426527,1382155,,1749,1
1620715426527,1382175,,1743,1
1620715426527,1382195,,1759,1
1620715426527,1382215,,1783,1
1620715426527,1382235,,1780,1
1620715426527,1382255,,1776,1
1620715426527,1382275,,1776,1
1620715427031,1382296,,1761,1
1620715427031,1382316,,1907,1
1620715427031,1382336,,2027,1
1620715427031,1382356,,2123,1
1620715427031,1382376,,2031,1
1620715427031,1382396,,1936,1
1620715427031,1382416,,1884,1
1620715427031,1382436,,1832,1
1620715427031,1382456,,1795,1
1620715427031,1382476,,1787,1
1620715427031,1382496,,1789,1
1620715427031,1382516,,1840,1
1620715427031,1382536,,1857,1
1620715427031,1382556,,1853,1
1620715427031,1382576,,1871,1
1620715427031,1382596,,2005,1
1620715427031,1382616,,2079,1
1620715427031,1382636,,2083,1
1620715427031,1382657,,2079,1
1620715427031,1382677,,2013,1
1620715427031,1382698,,1830,1
1620715427031,1382718,,1834,1
1620715427031,1382738,,1807,1
1620715427031,1382758,,1808,1
1620715427031,1382778,,1838,1
1620715427532,1382798,,1831,1
1620715427532,1382818,,2046,1
1620715427532,1382838,,2214,0
1620715427532,1382858,,2349,0
1620715427532,1382878,,2295,0
1620715427532,1382899,,2103,0
1620715427532,1382920,,2054,0
1620715427532,1382940,,2101,0
1620715427532,1382960,,2209,0
1620715427532,1382981,,2208,0
1620715427532,1383001,,2107,0
1620715427532,1383021,,2127,0
1620715427532,1383041,,2224,0
1620715427532,1383061,,2321,0
1620715427532,1383081,,2270,0
1620715427532,1383101,,2086,0
1620715427532,1383122,,1925,0
1620715427532,1383142,,1911,0
1620715427532,1383162,,1943,0
1620715427532,1383182,,1879,0
1620715427532,1383202,,1712,0
1620715427532,1383222,,1590,0
1620715427532,1383242,,1616,0
1620715427532,1383263,,1681,0
1620715427532,1383283,,1658,0
1620715428033,1383304,,1474,0
1620715428033,1383324,,1485,0
1620715428033,1383344,,1503,0
1620715428033,1383364,,1558,0
1620715428033,1383384,,1455,0
1620715428033,1383404,,1299,0
1620715428033,1383424,,1252,0
1620715428033,1383444,,1239,0
1620715428033,1383464,,1257,0
1620715428033,1383484,,1302,0
1620715428033,1383504,,1363,0
1620715428033,1383524,,1434,0
1620715428033,1383544,,1525,0
1620715428033,1383564,,1568,0
1620715428033,1383584,,1584,0
1620715428033,1383604,,1589,0
1620715428033,1383624,,1610,0
1620715428033,1383644,,1667,0
1620715428033,1383664,,1695,0
1620715428033,1383684,,1724,0
1620715428033,1383705,,1755,0
1620715428033,1383725,,1779,0
1620715428033,1383745,,1840,0
1620715428033,1383765,,1839,0
1620715428033,1383785,,1806,0
1620715428535,1383805,,1726,0
1620715428535,1383825,,1776,0
1620715428535,1383845,,1861,1
1620715428535,1383865,,1915,1
1620715428535,1383885,,1786,1
1620715428535,1383905,,1641,1
1620715428535,1383925,,1533,1
1620715428535,1383945,,1535,1
1620715428535,1383965,,1567,1
1620715428535,1383985,,1584,1
1620715428535,1384005,,1625,1
1620715428535,1384025,,1629,1
1620715428535,1384045,,1711,1
1620715428535,1384065,,1712,1
1620715428535,1384085,,1706,1
1620715428535,1384105,,1683,1
1620715428535,1384125,,1645,1
1620715428535,1384145,,1693,1
1620715428535,1384165,,1689,1
1620715428535,1384185,,1679,1
1620715428535,1384205,,1657,1
1620715428535,1384225,,1638,1
1620715428535,1384245,,1664,1
1620715428535,1384265,,1691,1
1620715428535,1384285,,1698,1
1620715429045,1384305,,1637,1
1620715429045,1384325,,1685,1
1620715429045,1384345,,1735,1
1620715429045,1384366,,1761,1
1620715429045,1384386,,1621,1
1620715429045,1384407,,1497,1
1620715429045,1384427,,1425,1
1620715429045,1384447,,1403,1
1620715429045,1384468,,1423,1
1620715429045,1384488,,1443,1
1620715429045,1384509,,1488,1
1620715429045,1384529,,1521,1
1620715429045,1384549,,1575,1
1620715429045,1384569,,1617,1
1620715429045,1384590,,1634,1
1620715429045,1384610,,1660,1
1620715429045,1384631,,1680,1
1620715429045,1384652,,1714,1
1620715429045,1384672,,1786,1
1620715429045,1384692,,1796,1
1620715429045,1384712,,1806,1
1620715429045,1384733,,1807,1
1620715429045,1384753,,1831,1
1620715429045,1384774,,1849,1
1620715429045,1384794,,1842,1
1620715429549,1384814,,1814,1
1620715429549,1384834,,1936,1
1620715429549,1384854,,2077,0
1620715429549,1384874,,2173,0
1620715429549,1384895,,2079,0
1620715429549,1384916,,1963,0
1620715429549,1384936,,1891,0
1620715429549,1384956,,1875,0
1620715429549,1384976,,1908,0
1620715429549,1384996,,1933,0
1620715429549,1385016,,1945,0
1620715429549,1385036,,1951,0
1620715429549,1385056,,1950,0
1620715429549,1385077,,1987,0
1620715429549,1385097,,1979,0
1620715429549,1385117,,1953,0
1620715429549,1385137,,1924,0
1620715429549,1385157,,1888,0
1620715429549,1385177,,1892,0
1620715429549,1385197,,1855,0
1620715429549,1385217,,1843,0
1620715429549,1385238,,1840,0
1620715429549,1385258,,1840,0
1620715429549,1385279,,1902,0
1620715429549,1385299,,1915,0
1620715430051,1385319,,1882,0
1620715430051,1385339,,1998,0
1620715430051,1385359,,2096,0
1620715430051,1385379,,2169,0
1620715430051,1385399,,2058,0
1620715430051,1385420,,1922,0
1620715430051,1385440,,1833,0
1620715430051,1385460,,1757,0
1620715430051,1385480,,1792,0
1620715430051,1385500,,1791,0
1620715430051,1385521,,1786,0
1620715430051,1385541,,1779,0
1620715430051,1385561,,1747,0
1620715430051,1385581,,1806,0
1620715430051,1385601,,1801,0
1620715430051,1385621,,1779,0
1620715430051,1385641,,1762,0
1620715430051,1385661,,1729,0
1620715430051,1385681,,1785,0
1620715430051,1385701,,1808,0
1620715430051,1385721,,1791,0
1620715430051,1385741,,1785,0
1620715430051,1385761,,1763,0
1620715430051,1385781,,1782,0
1620715430051,1385801,,1797,0
1620715430554,1385821,,1754,0
1620715430554,1385841,,1871,0
1620715430554,1385861,,1968,1
1620715430554,1385881,,2060,1
1620715430554,1385901,,1958,1
1620715430554,1385921,,1828,1
1620715430554,1385941,,1751,1
1620715430554,1385961,,1733,1
1620715430554,1385981,,1776,1
1620715430554,1386001,,1867,1
1620715430554,1386021,,1967,1
1620715430554,1386041,,2063,1
1620715430554,1386061,,2140,0
1620715430554,1386081,,2193,0
1620715430554,1386101,,2233,0
1620715430554,1386122,,2231,0
1620715430554,1386143,,2247,0
1620715430554,1386164,,2282,0
1620715430554,1386184,,2295,0
1620715430554,1386204,,2291,0
1620715430554,1386224,,2235,0
1620715430554,1386244,,2179,0
1620715430554,1386264,,2160,0
1620715430554,1386284,,2169,0
1620715430554,1386305,,2228,0
1620715431058,1386325,,2192,0
1620715431058,1386345,,2267,0
1620715431058,1386365,,2334,0
1620715431058,1386385,,2370,0
1620715431058,1386405,,2313,0
1620715431058,1386425,,2209,0
1620715431058,1386445,,2141,0
1620715431058,1386465,,2088,0
1620715431058,1386485,,1988,0
1620715431058,1386505,,1917,0
1620715431058,1386525,,1758,0
1620715431058,1386545,,1565,0
1620715431058,1386565,,1359,0
1620715431058,1386585,,1149,0
1620715431058,1386605,,1047,0
1620715431058,1386626,,927,0
1620715431058,1386646,,853,0
1620715431058,1386667,,874,0
1620715431058,1386688,,929,0
1620715431058,1386708,,1152,0
1620715431058,1386729,,1328,0
1620715431058,1386749,,1523,0
1620715431058,1386769,,1720,0
1620715431058,1386789,,1846,0
1620715431058,1386809,,2045,0
1620715431565,1386830,,2074,0
1620715431565,1386850,,2163,0
1620715431565,1386871,,2274,0
1620715431565,1386892,,2245,0
1620715431565,1386913,,2157,0
1620715431565,1386933,,2022,0
1620715431565,1386953,,1923,0
1620715431565,1386973,,1867,0
1620715431565,1386993,,1789,0
1620715431565,1387013,,1826,0
1620715431565,1387034,,1819,0
1620715431565,1387054,,1797,0
1620715431565,1387074,,1781,0
1620715431565,1387094,,1735,0
1620715431565,1387114,,1776,0
1620715431565,1387134,,1781,0
1620715431565,1387154,,1776,0
1620715431565,1387174,,1762,0
1620715431565,1387195,,1731,0
1620715431565,1387215,,1735,0
1620715431565,1387235,,1723,0
1620715431565,1387255,,1699,0
1620715431565,1387275,,1679,0
1620715431565,1387295,,1669,0
1620715431565,1387315,,1681,0
1620715432066,1387336,,1654,0
1620715432066,1387356,,1749,0
1620715432066,1387376,,1840,0
1620715432066,1387396,,1894,0
1620715432066,1387416,,1805,0
1620715432066,1387436,,1722,0
1620715432066,1387456,,1676,0
1620715432066,1387476,,1675,0
1620715432066,1387496,,1705,0
1620715432066,1387516,,1758,0
1620715432066,1387536,,1825,0
1620715432066,1387556,,1854,0
1620715432066,1387576,,1872,0
1620715432066,1387596,,1871,0
1620715432066,1387616,,1850,0
1620715432066,1387636,,1859,0
1620715432066,1387656,,1829,0
1620715432066,1387676,,1796,0
1620715432066,1387696,,1767,0
1620715432066,1387716,,1734,0
1620715432066,1387736,,1773,0
1620715432066,1387756,,1770,0
1620715432066,1387776,,1755,0
1620715432066,1387796,,1737,0
1620715432066,1387816,,1705,0
1620715432567,1387837,,1711,1
1620715432567,1387857,,1811,1
1620715432567,1387877,,1904,1
1620715432567,1387897,,1963,1
1620715432567,1387917,,1814,1
1620715432567,1387937,,1739,1
1620715432567,1387957,,1659,1
1620715432567,1387977,,1594,1
1620715432567,1387997,,1578,1
1620715432567,1388017,,1535,1
1620715432567,1388037,,1649,1
1620715432567,1388057,,1718,1
1620715432567,1388077,,1765,1
1620715432567,1388097,,1799,1
1620715432567,1388117,,1808,1
1620715432567,1388137,,1851,1
1620715432567,1388157,,1837,1
1620715432567,1388177,,1765,1
1620715432567,1388197,,1678,1
1620715432567,1388218,,1558,1
1620715432567,1388238,,1503,1
1620715432567,1388258,,1451,1
1620715432567,1388278,,1395,1
1620715432567,1388298,,1355,1
1620715432567,1388318,,1329,1
1620715433067,1388338,,1279,1
1620715433067,1388358,,1398,1
1620715433067,1388378,,1519,1
1620715433067,1388398,,1611,1
1620715433067,1388418,,1515,1
1620715433067,1388438,,1427,1
1620715433067,1388458,,1398,1
1620715433067,1388478,,1379,1
1620715433067,1388498,,1399,1
1620715433067,1388518,,1449,1
1620715433067,1388538,,1498,1
1620715433067,1388558,,1584,1
1620715433067,1388579,,1603,1
1620715433067,1388599,,1616,1
1620715433067,1388619,,1631,1
1620715433067,1388639,,1646,1
1620715433067,1388659,,1722,1
1620715433067,1388679,,1767,1
1620715433067,1388699,,1817,1
1620715433067,1388719,,1859,1
1620715433067,1388739,,1888,1
1620715433067,1388759,,1966,1
1620715433067,1388779,,1966,1
1620715433067,1388799,,1948,1
1620715433067,1388819,,1925,1
1620715433569,1388839,,1871,0
1620715433569,1388859,,1955,0
1620715433569,1388879,,2032,0
1620715433569,1388899,,2089,0
1620715433569,1388919,,1945,0
1620715433569,1388940,,1755,0
1620715433569,1388960,,1715,0
1620715433569,1388980,,1660,0
1620715433569,1389000,,1638,0
1620715433569,1389020,,1626,0
1620715433569,1389040,,1600,0
1620715433569,1389060,,1655,0
1620715433569,1389080,,1673,0
1620715433569,1389100,,1672,0
1620715433569,1389120,,1665,0
1620715433569,1389140,,1642,0
1620715433569,1389160,,1659,0
1620715433569,1389181,,1670,0
1620715433569,1389201,,1671,0
1620715433569,1389221,,1680,0
1620715433569,1389241,,1678,0
1620715433569,1389261,,1710,0
1620715433569,1389281,,1715,0
1620715433569,1389301,,1710,0
1620715433569,1389321,,1701,0
1620715434070,1389341,,1659,0
1620715434070,1389361,,1779,0
1620715434070,1389381,,1904,0
1620715434070,1389401,,2015,0
1620715434070,1389421,,1967,0
1620715434070,1389441,,1946,0
1620715434070,1389461,,1986,0
1620715434070,1389481,,2256,0
1620715434070,1389501,,2588,0
1620715434070,1389521,,2899,0
1620715434070,1389541,,3195,0
1620715434070,1389561,,3503,0
1620715434070,1389581,,3539,0
1620715434070,1389601,,3351,0
1620715434070,1389621,,3109,0
1620715434070,1389641,,2873,0
1620715434070,1389661,,2631,0
1620715434070,1389681,,2559,0
1620715434070,1389701,,2409,0
1620715434070,1389721,,2256,0
1620715434070,1389741,,2128,0
1620715434070,1389761,,2000,0
1620715434070,1389781,,1987,0
1620715434070,1389801,,1939,0
1620715434070,1389821,,1900,0
1620715434571,1389841,,1808,0
1620715434571,1389861,,1878,0
1620715434571,1389881,,1975,1
1620715434571,1389901,,2032,1
1620715434571,1389921,,2085,1
1620715434571,1389941,,1984,1
1620715434571,1389961,,1881,1
1620715434571,1389981,,1865,1
1620715434571,1390001,,1975,1
1620715434571,1390021,,2081,1
1620715434571,1390041,,2131,1
1620715434571,1390061,,2135,1
1620715434571,1390082,,2135,1
1620715434571,1390102,,1967,1
1620715434571,1390122,,1796,1
1620715434571,1390142,,1678,1
1620715434571,1390162,,1609,1
1620715434571,1390182,,1590,1
1620715434571,1390202,,1617,1
1620715434571,1390222,,1629,1
1620715434571,1390242,,1639,1
1620715434571,1390262,,1645,1
1620715434571,1390282,,1664,1
1620715434571,1390302,,1687,1
1620715434571,1390322,,1682,1
1620715435077,1390342,,1630,1
1620715435077,1390362,,1702,1
1620715435077,1390382,,1786,1
1620715435077,1390402,,1871,1
1620715435077,1390422,,1775,1
1620715435077,1390442,,1660,1
1620715435077,1390462,,1588,1
1620715435077,1390482,,1535,1
1620715435077,1390502,,1635,1
1620715435077,1390522,,1686,1
