localTime,remoteTime,label,bvp,signalOK
1620713812580,166066,,0,0
1620713812580,166086,,0,0
1620713812580,166106,,0,0
1620713812580,166126,,0,0
1620713812580,166146,,0,0
1620713812580,166166,,0,0
1620713812580,166186,,0,0
1620713812580,166206,,0,0
1620713812580,166226,,0,0
1620713812580,166247,,0,0
1620713812580,166267,,0,0
1620713812580,166287,,0,0
1620713812580,166307,,0,0
1620713812580,166327,,0,0
1620713812580,166347,,0,0
1620713812580,166367,,0,0
1620713812580,166387,,0,0
1620713812580,166407,,0,0
1620713812580,166427,,0,0
1620713812580,166447,,0,0
1620713812580,166468,,0,0
1620713812580,166488,,0,0
1620713812580,166508,,0,0
1620713812580,166528,,0,0
1620713812580,166548,,0,0
1620713813080,166568,,0,0
1620713813080,166588,,0,0
1620713813080,166608,,0,0
1620713813080,166628,,0,0
1620713813080,166648,,0,0
1620713813080,166668,,0,0
1620713813080,166689,,0,0
1620713813080,166709,,0,0
1620713813080,166729,,0,0
1620713813080,166749,,0,0
1620713813080,166769,,0,0
1620713813080,166789,,0,0
1620713813080,166809,,0,0
1620713813080,166829,,0,0
1620713813080,166849,,0,0
1620713813080,166869,,0,0
1620713813080,166889,,0,0
1620713813080,166910,,0,0
1620713813080,166930,,0,0
1620713813080,166950,,0,0
1620713813080,166970,,0,0
1620713813080,166990,,0,0
1620713813080,167010,,0,0
1620713813080,167030,,0,0
1620713813080,167050,,0,0
1620713813584,167071,,0,0
1620713813584,167091,,0,0
1620713813584,167111,,0,0
1620713813584,167132,,0,0
1620713813584,167152,,0,0
1620713813584,167172,,0,0
1620713813584,167192,,0,0
1620713813584,167212,,0,0
1620713813584,167232,,0,0
1620713813584,167252,,0,0
1620713813584,167272,,0,0
1620713813584,167292,,0,0
1620713813584,167312,,0,0
1620713813584,167332,,0,0
1620713813584,167353,,0,0
1620713813584,167373,,0,0
1620713813584,167393,,0,0
1620713813584,167413,,0,0
1620713813584,167433,,0,0
1620713813584,167453,,0,0
1620713813584,167473,,0,0
1620713813584,167493,,0,0
1620713813584,167513,,0,0
1620713813584,167533,,0,0
1620713813584,167553,,0,0
1620713814085,167573,,0,0
1620713814085,167593,,0,0
1620713814085,167613,,0,0
1620713814085,167633,,0,0
1620713814085,167653,,0,0
1620713814085,167673,,0,0
1620713814085,167693,,0,0
1620713814085,167713,,0,0
1620713814085,167733,,0,0
1620713814085,167753,,0,0
1620713814085,167773,,0,0
1620713814085,167794,,0,0
1620713814085,167814,,0,0
1620713814085,167834,,0,0
1620713814085,167854,,0,0
1620713814085,167874,,0,0
1620713814085,167894,,0,0
1620713814085,167914,,0,0
1620713814085,167934,,0,0
1620713814085,167954,,0,0
1620713814085,167974,,0,0
1620713814085,167994,,0,0
1620713814085,168015,,0,0
1620713814085,168035,,0,0
1620713814085,168055,,0,0
1620713814585,168075,,0,0
1620713814585,168095,,0,0
1620713814585,168115,,0,0
1620713814585,168135,,0,0
1620713814585,168155,,0,0
1620713814585,168175,,0,0
1620713814585,168195,,0,0
1620713814585,168215,,0,0
1620713814585,168236,,0,0
1620713814585,168256,,0,0
1620713814585,168276,,0,0
1620713814585,168296,,0,0
1620713814585,168316,,0,0
1620713814585,168336,,0,0
1620713814585,168356,,0,0
1620713814585,168376,,0,0
1620713814585,168396,,0,0
1620713814585,168416,,0,0
1620713814585,168436,,0,0
1620713814585,168457,,0,0
1620713814585,168477,,0,0
1620713814585,168497,,0,0
1620713814585,168517,,0,0
1620713814585,168537,,0,0
1620713814585,168557,,0,0
1620713815087,168577,,0,0
1620713815087,168597,,0,0
1620713815087,168617,,0,0
1620713815087,168637,,0,0
1620713815087,168657,,0,0
1620713815087,168678,,0,0
1620713815087,168698,,0,0
1620713815087,168718,,0,0
1620713815087,168738,,0,0
1620713815087,168758,,0,0
1620713815087,168778,,0,0
1620713815087,168798,,0,0
1620713815087,168818,,0,0
1620713815087,168838,,0,0
1620713815087,168858,,0,0
1620713815087,168878,,0,0
1620713815087,168899,,0,0
1620713815087,168919,,0,0
1620713815087,168939,,0,0
1620713815087,168959,,0,0
1620713815087,168979,,0,0
1620713815087,168999,,0,0
1620713815087,169019,,0,0
1620713815087,169039,,0,0
1620713815087,169059,,0,0
1620713815591,169080,,0,0
1620713815591,169100,,0,0
1620713815591,169121,,0,0
1620713815591,169141,,0,0
1620713815591,169161,,0,0
1620713815591,169181,,0,0
1620713815591,169201,,0,0
1620713815591,169221,,0,0
1620713815591,169241,,0,0
1620713815591,169261,,0,0
1620713815591,169281,,0,0
1620713815591,169301,,0,0
1620713815591,169321,,0,0
1620713815591,169342,,0,0
1620713815591,169362,,0,0
1620713815591,169382,,0,0
1620713815591,169402,,0,0
1620713815591,169422,,0,0
1620713815591,169442,,0,0
1620713815591,169462,,0,0
1620713815591,169482,,0,0
1620713815591,169502,,0,0
1620713815591,169522,,0,0
1620713815591,169542,,0,0
1620713815591,169563,,0,0
1620713816092,169583,,0,0
1620713816092,169603,,0,0
1620713816092,169623,,0,0
1620713816092,169643,,0,0
1620713816092,169663,,0,0
1620713816092,169683,,0,0
1620713816092,169703,,0,0
1620713816092,169723,,0,0
1620713816092,169743,,0,0
1620713816092,169763,,0,0
1620713816092,169783,,0,0
1620713816092,169803,,0,0
1620713816092,169823,,0,0
1620713816092,169843,,0,0
1620713816092,169863,,0,0
1620713816092,169883,,0,0
1620713816092,169903,,0,0
1620713816092,169923,,0,0
1620713816092,169943,,0,0
1620713816092,169963,,0,0
1620713816092,169983,,0,0
1620713816092,170004,,0,0
1620713816092,170024,,0,0
1620713816092,170044,,0,0
1620713816092,170064,,0,0
1620713816594,170084,,0,0
1620713816594,170104,,0,0
1620713816594,170124,,0,0
1620713816594,170144,,0,0
1620713816594,170164,,0,0
1620713816594,170184,,0,0
1620713816594,170204,,0,0
1620713816594,170225,,0,0
1620713816594,170245,,0,0
1620713816594,170265,,0,0
1620713816594,170285,,0,0
1620713816594,170305,,0,0
1620713816594,170325,,0,0
1620713816594,170345,,0,0
1620713816594,170365,,0,0
1620713816594,170385,,0,0
1620713816594,170405,,0,0
1620713816594,170425,,0,0
1620713816594,170446,,0,0
1620713816594,170466,,0,0
1620713816594,170486,,0,0
1620713816594,170506,,0,0
1620713816594,170526,,0,0
1620713816594,170546,,0,0
1620713816594,170566,,0,0
1620713817094,170586,,0,0
1620713817094,170606,,0,0
1620713817094,170626,,0,0
1620713817094,170646,,0,0
1620713817094,170667,,0,0
1620713817094,170687,,0,0
1620713817094,170707,,0,0
1620713817094,170727,,0,0
1620713817094,170747,,0,0
1620713817094,170767,,0,0
1620713817094,170787,,0,0
1620713817094,170807,,0,0
1620713817094,170827,,0,0
1620713817094,170847,,0,0
1620713817094,170867,,0,0
1620713817094,170888,,0,0
1620713817094,170908,,0,0
1620713817094,170928,,0,0
1620713817094,170948,,0,0
1620713817094,170968,,0,0
1620713817094,170988,,0,0
1620713817094,171008,,0,0
1620713817094,171028,,0,0
1620713817094,171048,,0,0
1620713817094,171068,,0,0
1620713817611,171088,,0,0
1620713817611,171109,,0,0
1620713817611,171129,,0,0
1620713817611,171149,,0,0
1620713817611,171169,,0,0
1620713817611,171189,,0,0
1620713817611,171209,,0,0
1620713817611,171229,,0,0
1620713817611,171249,,0,0
1620713817611,171269,,0,0
1620713817611,171289,,0,0
1620713817611,171309,,0,0
1620713817611,171330,,0,0
1620713817611,171350,,0,0
1620713817611,171370,,0,0
1620713817611,171390,,0,0
1620713817611,171410,,0,0
1620713817611,171430,,0,0
1620713817611,171450,,0,0
1620713817611,171470,,0,0
1620713817611,171490,,0,0
1620713817611,171510,,0,0
1620713817611,171530,,0,0
1620713817611,171551,,0,0
1620713817611,171571,,0,0
1620713818101,171591,,0,0
1620713818101,171611,,0,0
1620713818101,171631,,0,0
1620713818101,171651,,0,0
1620713818101,171671,,0,0
1620713818101,171691,,0,0
1620713818101,171711,,0,0
1620713818101,171731,,0,0
1620713818101,171751,,0,0
1620713818101,171772,,0,0
1620713818101,171792,,0,0
1620713818101,171812,,0,0
1620713818101,171832,,0,0
1620713818101,171852,,0,0
1620713818101,171872,,0,0
1620713818101,171892,,0,0
1620713818101,171912,,0,0
1620713818101,171932,,0,0
1620713818101,171952,,0,0
1620713818101,171972,,0,0
1620713818101,171993,,0,0
1620713818101,172013,,0,0
1620713818101,172033,,0,0
1620713818101,172053,,0,0
1620713818101,172073,,0,0
1620713818612,172094,,0,0
1620713818612,172114,,0,0
1620713818612,172134,,0,0
1620713818612,172154,,0,0
1620713818612,172174,,0,0
1620713818612,172194,,0,0
1620713818612,172215,,0,0
1620713818612,172235,,0,0
1620713818612,172255,,0,0
1620713818612,172275,,0,0
1620713818612,172295,,0,0
1620713818612,172315,,0,0
1620713818612,172335,,0,0
1620713818612,172355,,0,0
1620713818612,172375,,0,0
1620713818612,172395,,0,0
1620713818612,172415,,0,0
1620713818612,172436,,0,0
1620713818612,172456,,0,0
1620713818612,172476,,0,0
1620713818612,172496,,0,0
1620713818612,172516,,0,0
1620713818612,172536,,0,0
1620713818612,172556,,0,0
1620713818612,172576,,0,0
1620713819104,172596,,0,0
1620713819104,172616,,0,0
1620713819104,172636,,0,0
1620713819104,172657,,0,0
1620713819104,172677,,0,0
1620713819104,172697,,0,0
1620713819104,172717,,0,0
1620713819104,172737,,0,0
1620713819104,172757,,0,0
1620713819104,172777,,0,0
1620713819104,172797,,0,0
1620713819104,172817,,0,0
1620713819104,172837,,0,0
1620713819104,172857,,0,0
1620713819104,172878,,0,0
1620713819104,172898,,0,0
1620713819104,172918,,0,0
1620713819104,172938,,0,0
1620713819104,172958,,0,0
1620713819104,172978,,0,0
1620713819104,172998,,0,0
1620713819104,173018,,0,0
1620713819104,173038,,0,0
1620713819104,173058,,0,0
1620713819104,173078,,0,0
1620713819606,173099,,0,0
1620713819606,173119,,0,0
1620713819606,173139,,0,0
1620713819606,173159,,0,0
1620713819606,173179,,0,0
1620713819606,173199,,0,0
1620713819606,173219,,0,0
1620713819606,173239,,0,0
1620713819606,173259,,0,0
1620713819606,173279,,0,0
1620713819606,173299,,0,0
1620713819606,173320,,0,0
1620713819606,173340,,0,0
1620713819606,173360,,0,0
1620713819606,173380,,0,0
1620713819606,173400,,0,0
1620713819606,173420,,0,0
1620713819606,173440,,0,0
1620713819606,173460,,0,0
1620713819606,173480,,0,0
1620713819606,173500,,0,0
1620713819606,173520,,0,0
1620713819606,173541,,0,0
1620713819606,173561,,0,0
1620713819606,173581,,0,0
1620713820110,173601,,0,0
1620713820110,173621,,0,0
1620713820110,173641,,0,0
1620713820110,173661,,0,0
1620713820110,173681,,0,0
1620713820110,173701,,0,0
1620713820110,173721,,0,0
1620713820110,173741,,0,0
1620713820110,173762,,0,0
1620713820110,173782,,0,0
1620713820110,173802,,0,0
1620713820110,173822,,0,0
1620713820110,173842,,0,0
1620713820110,173862,,0,0
1620713820110,173882,,0,0
1620713820110,173902,,0,0
1620713820110,173922,,0,0
1620713820110,173942,,0,0
1620713820110,173962,,0,0
1620713820110,173983,,0,0
1620713820110,174003,,0,0
1620713820110,174023,,0,0
1620713820110,174043,,0,0
1620713820110,174063,,0,0
1620713820110,174083,,0,0
1620713820621,174103,,0,0
1620713820621,174123,,0,0
1620713820621,174143,,0,0
1620713820621,174163,,0,0
1620713820621,174183,,0,0
1620713820621,174204,,0,0
1620713820621,174224,,0,0
1620713820621,174244,,0,0
1620713820621,174264,,0,0
1620713820621,174284,,0,0
1620713820621,174304,,0,0
1620713820621,174324,,0,0
1620713820621,174344,,0,0
1620713820621,174364,,0,0
1620713820621,174384,,0,0
1620713820621,174404,,0,0
1620713820621,174425,,0,0
1620713820621,174445,,0,0
1620713820621,174465,,0,0
1620713820621,174485,,0,0
1620713820621,174505,,0,0
1620713820621,174525,,0,0
1620713820621,174545,,0,0
1620713820621,174565,,0,0
1620713820621,174585,,0,0
1620713821118,174605,,0,0
1620713821118,174625,,0,0
1620713821118,174646,,0,0
1620713821118,174666,,0,0
1620713821118,174686,,0,0
1620713821118,174706,,0,0
1620713821118,174726,,0,0
1620713821118,174746,,0,0
1620713821118,174766,,0,0
1620713821118,174786,,0,0
1620713821118,174806,,0,0
1620713821118,174826,,0,0
1620713821118,174846,,0,0
1620713821118,174867,,0,0
1620713821118,174887,,0,0
1620713821118,174907,,0,0
1620713821118,174927,,0,0
1620713821118,174947,,0,0
1620713821118,174967,,0,0
1620713821118,174987,,0,0
1620713821118,175007,,0,0
1620713821118,175027,,0,0
1620713821118,175047,,0,0
1620713821118,175067,,0,0
1620713821118,175088,,0,0
1620713821616,175108,,0,0
1620713821616,175128,,0,0
1620713821616,175148,,0,0
1620713821616,175168,,0,0
1620713821616,175188,,0,0
1620713821616,175208,,0,0
1620713821616,175228,,0,0
1620713821616,175248,,0,0
1620713821616,175268,,0,0
1620713821616,175288,,0,0
1620713821616,175309,,0,0
1620713821616,175329,,0,0
1620713821616,175349,,0,0
1620713821616,175369,,0,0
1620713821616,175389,,0,0
1620713821616,175409,,0,0
1620713821616,175429,,0,0
1620713821616,175449,,0,0
1620713821616,175469,,0,0
1620713821616,175489,,0,0
1620713821616,175509,,0,0
1620713821616,175530,,0,0
1620713821616,175550,,0,0
1620713821616,175570,,0,0
1620713821616,175590,,0,0
1620713822137,175610,,0,0
1620713822137,175630,,0,0
1620713822137,175650,,0,0
1620713822137,175670,,0,0
1620713822137,175690,,0,0
1620713822137,175710,,0,0
1620713822137,175730,,0,0
1620713822137,175751,,0,0
1620713822137,175771,,0,0
1620713822137,175791,,0,0
1620713822137,175811,,0,0
1620713822137,175831,,0,0
1620713822137,175851,,0,0
1620713822137,175871,,0,0
1620713822137,175891,,0,0
1620713822137,175911,,0,0
1620713822137,175931,,0,0
1620713822137,175951,,0,0
1620713822137,175972,,0,0
1620713822137,175992,,0,0
1620713822137,176012,,0,0
1620713822137,176032,,0,0
1620713822137,176052,,0,0
1620713822137,176072,,0,0
1620713822137,176092,,0,0
1620713822620,176112,,0,0
1620713822620,176132,,0,0
1620713822620,176152,,0,0
1620713822620,176172,,0,0
1620713822620,176193,,0,0
1620713822620,176213,,0,0
1620713822620,176233,,0,0
1620713822620,176253,,0,0
1620713822620,176273,,0,0
1620713822620,176293,,0,0
1620713822620,176313,,0,0
1620713822620,176333,,0,0
1620713822620,176353,,0,0
1620713822620,176373,,0,0
1620713822620,176393,,0,0
1620713822620,176414,,0,0
1620713822620,176434,,0,0
1620713822620,176454,,0,0
1620713822620,176474,,0,0
1620713822620,176494,,0,0
1620713822620,176514,,0,0
1620713822620,176534,,0,0
1620713822620,176554,,0,0
1620713822620,176574,,0,0
1620713822620,176594,,0,0
1620713823131,176614,,0,0
1620713823131,176635,,0,0
1620713823131,176655,,0,0
1620713823131,176675,,0,0
1620713823131,176695,,0,0
1620713823131,176715,,0,0
1620713823131,176735,,0,0
1620713823131,176755,,0,0
1620713823131,176775,,0,0
1620713823131,176795,,0,0
1620713823131,176815,,0,0
1620713823131,176835,,0,0
1620713823131,176856,,0,0
1620713823131,176876,,0,0
1620713823131,176896,,0,0
1620713823131,176916,,0,0
1620713823131,176936,,0,0
1620713823131,176956,,0,0
1620713823131,176976,,0,0
1620713823131,176996,,0,0
1620713823131,177016,,0,0
1620713823131,177036,,0,0
1620713823131,177056,,0,0
1620713823131,177077,,0,0
1620713823131,177097,,0,0
1620713823641,177117,,0,0
1620713823641,177137,,0,0
1620713823641,177157,,0,0
1620713823641,177177,,0,0
1620713823641,177197,,0,0
1620713823641,177217,,0,0
1620713823641,177237,,0,0
1620713823641,177258,,0,0
1620713823641,177278,,0,0
1620713823641,177299,,0,0
1620713823641,177319,,0,0
1620713823641,177339,,0,0
1620713823641,177359,,0,0
1620713823641,177379,,0,0
1620713823641,177399,,0,0
1620713823641,177419,,0,0
1620713823641,177439,,0,0
1620713823641,177459,,0,0
1620713823641,177479,,0,0
1620713823641,177499,,0,0
1620713823641,177520,,0,0
1620713823641,177540,,0,0
1620713823641,177560,,0,0
1620713823641,177580,,0,0
1620713823641,177600,,0,0
1620713824128,177620,,0,0
1620713824128,177640,,0,0
1620713824128,177660,,0,0
1620713824128,177680,,0,0
1620713824128,177700,,0,0
1620713824128,177720,,0,0
1620713824128,177741,,0,0
1620713824128,177761,,0,0
1620713824128,177781,,0,0
1620713824128,177801,,0,0
1620713824128,177821,,0,0
1620713824128,177841,,0,0
1620713824128,177861,,0,0
1620713824128,177881,,0,0
1620713824128,177901,,0,0
1620713824128,177921,,0,0
1620713824128,177941,,0,0
1620713824128,177962,,0,0
1620713824128,177982,,0,0
1620713824128,178002,,0,0
1620713824128,178022,,0,0
1620713824128,178042,,0,0
1620713824128,178062,,0,0
1620713824128,178082,,0,0
1620713824128,178102,,0,0
1620713824632,178122,,0,0
1620713824632,178142,,0,0
1620713824632,178162,,0,0
1620713824632,178183,,0,0
1620713824632,178203,,0,0
1620713824632,178223,,0,0
1620713824632,178243,,0,0
1620713824632,178263,,0,0
1620713824632,178283,,0,0
1620713824632,178303,,0,0
1620713824632,178323,,0,0
1620713824632,178343,,0,0
1620713824632,178363,,0,0
1620713824632,178383,,0,0
1620713824632,178404,,0,0
1620713824632,178424,,0,0
1620713824632,178444,,0,0
1620713824632,178464,,0,0
1620713824632,178484,,0,0
1620713824632,178504,,0,0
1620713824632,178524,,0,0
1620713824632,178544,,0,0
1620713824632,178564,,0,0
1620713824632,178584,,0,0
1620713824632,178604,,0,0
1620713825133,178624,,0,0
1620713825133,178644,,0,0
1620713825133,178664,,0,0
1620713825133,178684,,0,0
1620713825133,178704,,0,0
1620713825133,178724,,0,0
1620713825133,178744,,0,0
1620713825133,178764,,0,0
1620713825133,178784,,0,0
1620713825133,178804,,0,0
1620713825133,178824,,0,0
1620713825133,178845,,0,0
1620713825133,178865,,0,0
1620713825133,178885,,0,0
1620713825133,178905,,0,0
1620713825133,178925,,0,0
1620713825133,178945,,0,0
1620713825133,178965,,0,0
1620713825133,178985,,0,0
1620713825133,179005,,0,0
1620713825133,179025,,0,0
1620713825133,179045,,0,0
1620713825133,179066,,0,0
1620713825133,179086,,0,0
1620713825133,179106,,0,0
1620713825649,179126,,0,0
1620713825649,179146,,0,0
1620713825649,179166,,0,0
1620713825649,179186,,0,0
1620713825649,179206,,0,0
1620713825649,179226,,0,0
1620713825649,179246,,0,0
1620713825649,179266,,0,0
1620713825649,179287,,0,0
1620713825649,179307,,0,0
1620713825649,179327,,0,0
1620713825649,179347,,0,0
1620713825649,179367,,0,0
1620713825649,179387,,0,0
1620713825649,179407,,0,0
1620713825649,179427,,0,0
1620713825649,179447,,0,0
1620713825649,179467,,0,0
1620713825649,179487,,0,0
1620713825649,179508,,0,0
1620713825649,179528,,0,0
1620713825649,179548,,0,0
1620713825649,179568,,0,0
1620713825649,179588,,0,0
1620713825649,179608,,0,0
1620713826146,179629,,0,0
1620713826146,179649,,0,0
1620713826146,179669,,0,0
1620713826146,179689,,0,0
1620713826146,179709,,0,0
1620713826146,179730,,0,0
1620713826146,179750,,0,0
1620713826146,179770,,0,0
1620713826146,179790,,0,0
1620713826146,179810,,0,0
1620713826146,179830,,0,0
1620713826146,179850,,0,0
1620713826146,179870,,0,0
1620713826146,179890,,0,0
1620713826146,179910,,0,0
1620713826146,179930,,0,0
1620713826146,179951,,0,0
1620713826146,179971,,0,0
1620713826146,179991,,0,0
1620713826146,180011,,0,0
1620713826146,180031,,0,0
1620713826146,180051,,0,0
1620713826146,180071,,0,0
1620713826146,180091,,0,0
1620713826146,180111,,0,0
1620713826643,180132,,0,0
1620713826643,180152,,0,0
1620713826643,180173,,0,0
1620713826643,180193,,0,0
1620713826643,180213,,0,0
1620713826643,180233,,0,0
1620713826643,180253,,0,0
1620713826643,180273,,0,0
1620713826643,180293,,0,0
1620713826643,180313,,0,0
1620713826643,180333,,0,0
1620713826643,180353,,0,0
1620713826643,180373,,0,0
1620713826643,180394,,0,0
1620713826643,180414,,0,0
1620713826643,180434,,0,0
1620713826643,180454,,0,0
1620713826643,180474,,0,0
1620713826643,180494,,0,0
1620713826643,180514,,0,0
1620713826643,180534,,0,0
1620713826643,180554,,0,0
1620713826643,180574,,0,0
1620713826643,180594,,0,0
1620713826643,180615,,0,0
1620713827142,180635,,0,0
1620713827142,180655,,0,0
1620713827142,180675,,0,0
1620713827142,180695,,0,0
1620713827142,180715,,0,0
1620713827142,180735,,0,0
1620713827142,180755,,0,0
1620713827142,180775,,0,0
1620713827142,180795,,0,0
1620713827142,180815,,0,0
1620713827142,180836,,0,0
1620713827142,180856,,0,0
1620713827142,180876,,0,0
1620713827142,180896,,0,0
1620713827142,180916,,0,0
1620713827142,180936,,0,0
1620713827142,180956,,0,0
1620713827142,180976,,0,0
1620713827142,180996,,0,0
1620713827142,181016,,0,0
1620713827142,181036,,0,0
1620713827142,181057,,0,0
1620713827142,181077,,0,0
1620713827142,181097,,0,0
1620713827142,181117,,0,0
1620713829183,183106,,0,0
1620713829183,183126,,0,0
1620713829655,183146,,0,0
1620713829655,183166,,0,0
1620713829655,183186,,0,0
1620713829655,183206,,0,0
1620713829655,183226,,0,0
1620713829655,183246,,0,0
1620713829655,183267,,0,0
1620713829655,183287,,0,0
1620713829655,183307,,0,0
1620713829655,183327,,0,0
1620713829655,183347,,0,0
1620713829655,183367,,0,0
1620713829655,183387,,0,0
1620713829655,183407,,0,0
1620713829655,183427,,0,0
1620713829655,183447,,0,0
1620713829655,183467,,0,0
1620713829655,183488,,0,0
1620713829655,183508,,0,0
1620713829655,183528,,0,0
1620713829655,183548,,0,0
1620713829655,183568,,0,0
1620713829655,183588,,0,0
1620713829655,183608,,0,0
1620713829655,183628,,0,0
1620713830157,183648,,0,0
1620713830157,183668,,0,0
1620713830157,183688,,0,0
1620713830157,183709,,0,0
1620713830157,183729,,0,0
1620713830157,183749,,0,0
1620713830157,183769,,0,0
1620713830157,183789,,0,0
1620713830157,183809,,0,0
1620713830157,183829,,0,0
1620713830157,183849,,0,0
1620713830157,183869,,0,0
1620713830157,183889,,0,0
1620713830157,183909,,0,0
1620713830157,183930,,0,0
1620713830157,183950,,0,0
1620713830157,183970,,0,0
1620713830157,183990,,0,0
1620713830157,184010,,0,0
1620713830157,184030,,0,0
1620713830157,184050,,0,0
1620713830157,184070,,0,0
1620713830157,184090,,0,0
1620713830157,184110,,0,0
1620713830157,184130,,0,0
1620713830667,184150,,0,0
1620713830667,184170,,0,0
1620713830667,184190,,0,0
1620713830667,184210,,0,0
1620713830667,184230,,0,0
1620713830667,184250,,0,0
1620713830667,184270,,0,0
1620713830667,184290,,0,0
1620713830667,184310,,0,0
1620713830667,184330,,0,0
1620713830667,184350,,0,0
1620713830667,184371,,0,0
1620713830667,184391,,0,0
1620713830667,184411,,0,0
1620713830667,184431,,0,0
1620713830667,184451,,0,0
1620713830667,184471,,0,0
1620713830667,184491,,0,0
1620713830667,184511,,0,0
1620713830667,184531,,0,0
1620713830667,184551,,0,0
1620713830667,184571,,0,0
1620713830667,184592,,0,0
1620713830667,184612,,0,0
1620713830667,184632,,0,0
1620713831162,184652,,0,0
1620713831162,184672,,0,0
1620713831162,184692,,0,0
1620713831162,184712,,0,0
1620713831162,184732,,0,0
1620713831162,184752,,0,0
1620713831162,184772,,0,0
1620713831162,184792,,0,0
1620713831162,184813,,0,0
1620713831162,184833,,0,0
1620713831162,184853,,0,0
1620713831162,184873,,0,0
1620713831162,184893,,0,0
1620713831162,184913,,0,0
1620713831162,184933,,0,0
1620713831162,184953,,0,0
1620713831162,184973,,0,0
1620713831162,184993,,0,0
1620713831162,185013,,0,0
1620713831162,185034,,0,0
1620713831162,185054,,0,0
1620713831162,185074,,0,0
1620713831162,185094,,0,0
1620713831162,185114,,0,0
1620713831162,185134,,0,0
1620713831665,185155,,0,0
1620713831665,185175,,0,0
1620713831665,185195,,0,0
1620713831665,185215,,0,0
1620713831665,185235,,0,0
1620713831665,185256,,0,0
1620713831665,185276,,0,0
1620713831665,185296,,0,0
1620713831665,185316,,0,0
1620713831665,185336,,0,0
1620713831665,185356,,0,0
1620713831665,185376,,0,0
1620713831665,185396,,0,0
1620713831665,185416,,0,0
1620713831665,185436,,0,0
1620713831665,185456,,0,0
1620713831665,185477,,0,0
1620713831665,185497,,0,0
1620713831665,185517,,0,0
1620713831665,185537,,0,0
1620713831665,185557,,0,0
1620713831665,185577,,0,0
1620713831665,185597,,0,0
1620713831665,185617,,0,0
1620713831665,185637,,0,0
1620713832170,185657,,0,0
1620713832170,185677,,0,0
1620713832170,185698,,0,0
1620713832170,185718,,0,0
1620713832170,185738,,0,0
1620713832170,185758,,0,0
1620713832170,185778,,0,0
1620713832170,185798,,0,0
1620713832170,185818,,0,0
1620713832170,185838,,0,0
1620713832170,185858,,0,0
1620713832170,185878,,0,0
1620713832170,185898,,0,0
1620713832170,185919,,0,0
1620713832170,185939,,0,0
1620713832170,185959,,0,0
1620713832170,185979,,0,0
1620713832170,185999,,0,0
1620713832170,186019,,0,0
1620713832170,186039,,0,0
1620713832170,186059,,0,0
1620713832170,186079,,0,0
1620713832170,186099,,0,0
1620713832170,186119,,0,0
1620713832170,186140,,0,0
1620713832672,186161,,0,0
1620713832672,186181,,0,0
1620713832672,186201,,0,0
1620713832672,186221,,0,0
1620713832672,186241,,0,0
1620713832672,186261,,0,0
1620713832672,186281,,0,0
1620713832672,186301,,0,0
1620713832672,186321,,0,0
1620713832672,186341,,0,0
1620713832672,186362,,0,0
1620713832672,186382,,0,0
1620713832672,186402,,0,0
1620713832672,186422,,0,0
1620713832672,186442,,0,0
1620713832672,186462,,0,0
1620713832672,186482,,0,0
1620713832672,186502,,0,0
1620713832672,186522,,0,0
1620713832672,186542,,0,0
1620713832672,186562,,0,0
1620713832672,186582,,0,0
1620713832672,186602,,0,0
1620713832672,186622,,0,0
1620713832672,186642,,0,0
1620713833174,186662,,0,0
1620713833174,186682,,0,0
1620713833174,186702,,0,0
1620713833174,186722,,0,0
1620713833174,186742,,0,0
1620713833174,186762,,0,0
1620713833174,186782,,0,0
1620713833174,186803,,0,0
1620713833174,186823,,0,0
1620713833174,186843,,0,0
1620713833174,186863,,0,0
1620713833174,186883,,0,0
1620713833174,186903,,0,0
1620713833174,186923,,0,0
1620713833174,186943,,0,0
1620713833174,186963,,0,0
1620713833174,186983,,0,0
1620713833174,187003,,0,0
1620713833174,187024,,0,0
1620713833174,187044,,0,0
1620713833174,187064,,0,0
1620713833174,187084,,0,0
1620713833174,187104,,0,0
1620713833174,187124,,0,0
1620713833174,187144,,0,0
1620713833673,187164,,0,0
1620713833673,187184,,0,0
1620713833673,187204,,0,0
1620713833673,187224,,0,0
1620713833673,187245,,0,0
1620713833673,187265,,0,0
1620713833673,187285,,0,0
1620713833673,187305,,0,0
1620713833673,187325,,0,0
1620713833673,187345,,0,0
1620713833673,187365,,0,0
1620713833673,187385,,0,0
1620713833673,187405,,0,0
1620713833673,187425,,0,0
1620713833673,187445,,0,0
1620713833673,187466,,0,0
1620713833673,187486,,0,0
1620713833673,187506,,0,0
1620713833673,187526,,0,0
1620713833673,187546,,0,0
1620713833673,187566,,0,0
1620713833673,187586,,0,0
1620713833673,187606,,0,0
1620713833673,187626,,0,0
1620713833673,187646,,0,0
1620713834181,187666,,0,0
1620713834181,187687,,0,0
1620713834181,187707,,0,0
1620713834181,187727,,0,0
1620713834181,187747,,0,0
1620713834181,187767,,0,0
1620713834181,187787,,0,0
1620713834181,187807,,0,0
1620713834181,187827,,0,0
1620713834181,187847,,0,0
1620713834181,187867,,0,0
1620713834181,187887,,0,0
1620713834181,187907,,0,0
1620713834181,187927,,0,0
1620713834181,187947,,0,0
1620713834181,187967,,0,0
1620713834181,187987,,0,0
1620713834181,188007,,0,0
1620713834181,188027,,0,0
1620713834181,188047,,0,0
1620713834181,188067,,0,0
1620713834181,188087,,0,0
1620713834181,188107,,0,0
1620713834181,188128,,0,0
1620713834181,188148,,0,0
1620713834678,188169,,0,0
1620713834678,188189,,0,0
1620713834678,188209,,0,0
1620713834678,188229,,0,0
1620713834678,188249,,0,0
1620713834678,188269,,0,0
1620713834678,188289,,0,0
1620713834678,188309,,0,0
1620713834678,188329,,0,0
1620713834678,188350,,0,0
1620713834678,188370,,0,0
1620713834678,188390,,0,0
1620713834678,188410,,0,0
1620713834678,188430,,0,0
1620713834678,188450,,0,0
1620713834678,188470,,0,0
1620713834678,188490,,0,0
1620713834678,188510,,0,0
1620713834678,188530,,0,0
1620713834678,188550,,0,0
1620713834678,188571,,0,0
1620713834678,188591,,0,0
1620713834678,188611,,0,0
1620713834678,188631,,0,0
1620713834678,188651,,0,0
1620713835179,188671,,0,0
1620713835179,188691,,0,0
1620713835179,188711,,0,0
1620713835179,188731,,0,0
1620713835179,188751,,0,0
1620713835179,188771,,0,0
1620713835179,188792,,0,0
1620713835179,188812,,0,0
1620713835179,188832,,0,0
1620713835179,188852,,0,0
1620713835179,188872,,0,0
1620713835179,188892,,0,0
1620713835179,188912,,0,0
1620713835179,188932,,0,0
1620713835179,188952,,0,0
1620713835179,188972,,0,0
1620713835179,188992,,0,0
1620713835179,189013,,0,0
1620713835179,189033,,0,0
1620713835179,189053,,0,0
1620713835179,189073,,0,0
1620713835179,189093,,0,0
1620713835179,189113,,0,0
1620713835179,189133,,0,0
1620713835179,189153,,0,0
1620713835683,189173,,0,0
1620713835683,189193,,0,0
1620713835683,189213,,0,0
1620713835683,189234,,0,0
1620713835683,189254,,0,0
1620713835683,189274,,0,0
1620713835683,189294,,0,0
1620713835683,189314,,0,0
1620713835683,189334,,0,0
1620713835683,189354,,0,0
1620713835683,189374,,0,0
1620713835683,189394,,0,0
1620713835683,189414,,0,0
1620713835683,189434,,0,0
1620713835683,189455,,0,0
1620713835683,189475,,0,0
1620713835683,189495,,0,0
1620713835683,189515,,0,0
1620713835683,189535,,0,0
1620713835683,189555,,0,0
1620713835683,189575,,0,0
1620713835683,189595,,0,0
1620713835683,189615,,0,0
1620713835683,189635,,0,0
1620713835683,189655,,0,0
1620713836184,189675,,0,0
1620713836184,189695,,0,0
1620713836184,189715,,0,0
1620713836184,189735,,0,0
1620713836184,189755,,0,0
1620713836184,189775,,0,0
1620713836184,189795,,0,0
1620713836184,189815,,0,0
1620713836184,189835,,0,0
1620713836184,189855,,0,0
1620713836184,189875,,0,0
1620713836184,189896,,0,0
1620713836184,189916,,0,0
1620713836184,189936,,0,0
1620713836184,189956,,0,0
1620713836184,189976,,0,0
1620713836184,189996,,0,0
1620713836184,190016,,0,0
1620713836184,190036,,0,0
1620713836184,190056,,0,0
1620713836184,190076,,0,0
1620713836184,190096,,0,0
1620713836184,190117,,0,0
1620713836184,190137,,0,0
1620713836184,190157,,0,0
1620713836688,190177,,0,0
1620713836688,190197,,0,0
1620713836688,190217,,0,0
1620713836688,190237,,0,0
1620713836688,190257,,0,0
1620713836688,190277,,0,0
1620713836688,190297,,0,0
1620713836688,190317,,0,0
1620713836688,190338,,0,0
1620713836688,190358,,0,0
1620713836688,190378,,0,0
1620713836688,190398,,0,0
1620713836688,190418,,0,0
1620713836688,190438,,0,0
1620713836688,190458,,0,0
1620713836688,190478,,0,0
1620713836688,190498,,0,0
1620713836688,190518,,0,0
1620713836688,190538,,0,0
1620713836688,190559,,0,0
1620713836688,190579,,0,0
1620713836688,190599,,0,0
1620713836688,190619,,0,0
1620713836688,190639,,0,0
1620713836688,190659,,0,0
1620713837188,190679,,0,0
1620713837188,190699,,0,0
1620713837188,190719,,0,0
1620713837188,190739,,0,0
1620713837188,190759,,0,0
1620713837188,190780,,0,0
1620713837188,190800,,0,0
1620713837188,190820,,0,0
1620713837188,190840,,0,0
1620713837188,190860,,0,0
1620713837188,190880,,0,0
1620713837188,190900,,0,0
1620713837188,190920,,0,0
1620713837188,190940,,0,0
1620713837188,190960,,0,0
1620713837188,190980,,0,0
1620713837188,191001,,0,0
1620713837188,191021,,0,0
1620713837188,191041,,0,0
1620713837188,191061,,0,0
1620713837188,191081,,0,0
1620713837188,191101,,0,0
1620713837188,191121,,0,0
1620713837188,191141,,0,0
1620713837188,191161,,0,0
1620713837693,191182,,0,0
1620713837693,191202,,0,0
1620713837693,191223,,0,0
1620713837693,191243,,0,0
1620713837693,191263,,0,0
1620713837693,191283,,0,0
1620713837693,191303,,0,0
1620713837693,191323,,0,0
1620713837693,191343,,0,0
1620713837693,191363,,0,0
1620713837693,191383,,0,0
1620713837693,191403,,0,0
1620713837693,191423,,0,0
1620713837693,191444,,0,0
1620713837693,191464,,0,0
1620713837693,191484,,0,0
1620713837693,191504,,0,0
1620713837693,191524,,0,0
1620713837693,191544,,0,0
1620713837693,191564,,0,0
1620713837693,191584,,0,0
1620713837693,191604,,0,0
1620713837693,191624,,0,0
1620713837693,191644,,0,0
1620713837693,191665,,0,0
1620713838193,191685,,0,0
1620713838193,191705,,0,0
1620713838193,191725,,0,0
1620713838193,191745,,0,0
1620713838193,191765,,0,0
1620713838193,191785,,0,0
1620713838193,191805,,0,0
1620713838193,191825,,0,0
1620713838193,191845,,0,0
1620713838193,191865,,0,0
1620713838193,191886,,0,0
1620713838193,191906,,0,0
1620713838193,191926,,0,0
1620713838193,191946,,0,0
1620713838193,191966,,0,0
1620713838193,191986,,0,0
1620713838193,192006,,0,0
1620713838193,192026,,0,0
1620713838193,192046,,0,0
1620713838193,192066,,0,0
1620713838193,192086,,0,0
1620713838193,192106,,0,0
1620713838193,192126,,0,0
1620713838193,192146,,0,0
1620713838193,192166,,0,0
1620713838695,192187,,0,0
1620713838695,192207,,0,0
1620713838695,192227,,0,0
1620713838695,192247,,0,0
1620713838695,192267,,0,0
1620713838695,192287,,0,0
1620713838695,192307,,0,0
1620713838695,192328,,0,0
1620713838695,192348,,0,0
1620713838695,192368,,0,0
1620713838695,192388,,0,0
1620713838695,192408,,0,0
1620713838695,192428,,0,0
1620713838695,192448,,0,0
1620713838695,192468,,0,0
1620713838695,192488,,0,0
1620713838695,192508,,0,0
1620713838695,192528,,0,0
1620713838695,192549,,0,0
1620713838695,192569,,0,0
1620713838695,192589,,0,0
1620713838695,192609,,0,0
1620713838695,192629,,0,0
1620713838695,192649,,0,0
1620713838695,192669,,0,0
1620713839200,192689,,0,0
1620713839200,192709,,0,0
1620713839200,192729,,0,0
1620713839200,192749,,0,0
1620713839200,192770,,0,0
1620713839200,192790,,0,0
1620713839200,192810,,0,0
1620713839200,192830,,0,0
1620713839200,192850,,0,0
1620713839200,192870,,0,0
1620713839200,192890,,0,0
1620713839200,192910,,0,0
1620713839200,192930,,0,0
1620713839200,192950,,0,0
1620713839200,192970,,0,0
1620713839200,192991,,0,0
1620713839200,193011,,0,0
1620713839200,193031,,0,0
1620713839200,193051,,0,0
1620713839200,193071,,0,0
1620713839200,193091,,0,0
1620713839200,193111,,0,0
1620713839200,193131,,0,0
1620713839200,193151,,0,0
1620713839200,193171,,0,0
1620713839703,193191,,0,0
1620713839703,193212,,0,0
1620713839703,193232,,0,0
1620713839703,193252,,0,0
1620713839703,193272,,0,0
1620713839703,193292,,0,0
1620713839703,193312,,0,0
1620713839703,193332,,0,0
1620713839703,193352,,0,0
1620713839703,193372,,0,0
1620713839703,193392,,0,0
1620713839703,193412,,0,0
1620713839703,193433,,0,0
1620713839703,193453,,0,0
1620713839703,193473,,0,0
1620713839703,193493,,0,0
1620713839703,193513,,0,0
1620713839703,193533,,0,0
1620713839703,193553,,0,0
1620713839703,193573,,0,0
1620713839703,193593,,0,0
1620713839703,193613,,0,0
1620713839703,193633,,0,0
1620713839703,193654,,0,0
1620713839703,193674,,0,0
1620713840203,193694,,0,0
1620713840203,193714,,0,0
1620713840203,193734,,0,0
1620713840203,193754,,0,0
1620713840203,193774,,0,0
1620713840203,193794,,0,0
1620713840203,193814,,0,0
1620713840203,193834,,0,0
1620713840203,193854,,0,0
1620713840203,193875,,0,0
1620713840203,193895,,0,0
1620713840203,193915,,0,0
1620713840203,193935,,0,0
1620713840203,193955,,0,0
1620713840203,193975,,0,0
1620713840203,193995,,0,0
1620713840203,194015,,0,0
1620713840203,194035,,0,0
1620713840203,194055,,0,0
1620713840203,194075,,0,0
1620713840203,194096,,0,0
1620713840203,194116,,0,0
1620713840203,194136,,0,0
1620713840203,194156,,0,0
1620713840203,194176,,0,0
1620713840705,194196,,0,0
1620713840705,194216,,0,0
1620713840705,194236,,0,0
1620713840705,194256,,0,0
1620713840705,194276,,0,0
1620713840705,194296,,0,0
1620713840705,194317,,0,0
1620713840705,194337,,0,0
1620713840705,194357,,0,0
1620713840705,194377,,0,0
1620713840705,194397,,0,0
1620713840705,194417,,0,0
1620713840705,194437,,0,0
1620713840705,194457,,0,0
1620713840705,194477,,0,0
1620713840705,194497,,0,0
1620713840705,194517,,0,0
1620713840705,194538,,0,0
1620713840705,194558,,0,0
1620713840705,194578,,0,0
1620713840705,194598,,0,0
1620713840705,194618,,0,0
1620713840705,194638,,0,0
1620713840705,194658,,0,0
1620713840705,194678,,0,0
1620713841206,194698,,0,0
1620713841206,194718,,0,0
1620713841206,194738,,0,0
1620713841206,194759,,0,0
1620713841206,194779,,0,0
1620713841206,194799,,0,0
1620713841206,194819,,0,0
1620713841206,194839,,0,0
1620713841206,194859,,0,0
1620713841206,194879,,0,0
1620713841206,194899,,0,0
1620713841206,194919,,0,0
1620713841206,194939,,0,0
1620713841206,194959,,0,0
1620713841206,194979,,0,0
1620713841206,194999,,0,0
1620713841206,195019,,0,0
1620713841206,195039,,0,0
1620713841206,195059,,0,0
1620713841206,195079,,0,0
1620713841206,195099,,0,0
1620713841206,195119,,0,0
1620713841206,195139,,0,0
1620713841206,195159,,0,0
1620713841206,195179,,0,0
1620713841710,195199,,0,0
1620713841710,195219,,0,0
1620713841710,195239,,0,0
1620713841710,195259,,0,0
1620713841710,195279,,0,0
1620713841710,195299,,0,0
1620713841710,195319,,0,0
1620713841710,195339,,0,0
1620713841710,195359,,0,0
1620713841710,195379,,0,0
1620713841710,195399,,0,0
1620713841710,195420,,0,0
1620713841710,195440,,0,0
1620713841710,195460,,0,0
1620713841710,195480,,0,0
1620713841710,195500,,0,0
1620713841710,195520,,0,0
1620713841710,195540,,0,0
1620713841710,195560,,0,0
1620713841710,195580,,0,0
1620713841710,195600,,0,0
1620713841710,195620,,0,0
1620713841710,195641,,0,0
1620713841710,195661,,0,0
1620713841710,195681,,0,0
1620713842214,195702,,0,0
1620713842214,195722,,0,0
1620713842214,195742,,0,0
1620713842214,195762,,0,0
1620713842214,195782,,0,0
1620713842214,195802,,0,0
1620713842214,195822,,0,0
1620713842214,195842,,0,0
1620713842214,195863,,0,0
1620713842214,195883,,0,0
1620713842214,195903,,0,0
1620713842214,195923,,0,0
1620713842214,195943,,0,0
1620713842214,195963,,0,0
1620713842214,195983,,0,0
1620713842214,196003,,0,0
1620713842214,196023,,0,0
1620713842214,196043,,0,0
1620713842214,196063,,0,0
1620713842214,196084,,0,0
1620713842214,196104,,0,0
1620713842214,196124,,0,0
1620713842214,196144,,0,0
1620713842214,196164,,0,0
1620713842214,196184,,0,0
1620713842720,196204,,0,0
1620713842720,196224,,0,0
1620713842720,196244,,0,0
1620713842720,196264,,0,0
1620713842720,196284,,0,0
1620713842720,196304,,0,0
1620713842720,196324,,0,0
1620713842720,196344,,0,0
1620713842720,196364,,0,0
1620713842720,196384,,0,0
1620713842720,196404,,0,0
1620713842720,196424,,0,0
1620713842720,196444,,0,0
1620713842720,196464,,0,0
1620713842720,196484,,0,0
1620713842720,196504,,0,0
1620713842720,196525,,0,0
1620713842720,196545,,0,0
1620713842720,196565,,0,0
1620713842720,196585,,0,0
1620713842720,196605,,0,0
1620713842720,196625,,0,0
1620713842720,196645,,0,0
1620713842720,196665,,0,0
1620713842720,196685,,0,0
1620713843214,196705,,0,0
1620713843214,196725,,0,0
1620713843214,196746,,0,0
1620713843214,196766,,0,0
1620713843214,196786,,0,0
1620713843214,196806,,0,0
1620713843214,196826,,0,0
1620713843214,196846,,0,0
1620713843214,196866,,0,0
1620713843214,196886,,0,0
1620713843214,196906,,0,0
1620713843214,196926,,0,0
1620713843214,196946,,0,0
1620713843214,196967,,0,0
1620713843214,196987,,0,0
1620713843214,197007,,0,0
1620713843214,197027,,0,0
1620713843214,197047,,0,0
1620713843214,197067,,0,0
1620713843214,197087,,0,0
1620713843214,197107,,0,0
1620713843214,197127,,0,0
1620713843214,197147,,0,0
1620713843214,197167,,0,0
1620713843214,197188,,0,0
1620713843720,197208,,0,0
1620713843720,197228,,0,0
1620713843720,197248,,0,0
1620713843720,197268,,0,0
1620713843720,197288,,0,0
1620713843720,197308,,0,0
1620713843720,197328,,0,0
1620713843720,197348,,0,0
1620713843720,197368,,0,0
1620713843720,197388,,0,0
1620713843720,197409,,0,0
1620713843720,197429,,0,0
1620713843720,197449,,0,0
1620713843720,197469,,0,0
1620713843720,197489,,0,0
1620713843720,197509,,0,0
1620713843720,197529,,0,0
1620713843720,197549,,0,0
1620713843720,197569,,0,0
1620713843720,197589,,0,0
1620713843720,197609,,0,0
1620713843720,197630,,0,0
1620713843720,197650,,0,0
1620713843720,197670,,0,0
1620713843720,197690,,0,0
1620713844218,197710,,0,0
1620713844218,197730,,0,0
1620713844218,197750,,0,0
1620713844218,197770,,0,0
1620713844218,197790,,0,0
1620713844218,197810,,0,0
1620713844218,197830,,0,0
1620713844218,197851,,0,0
1620713844218,197871,,0,0
1620713844218,197891,,0,0
1620713844218,197911,,0,0
1620713844218,197931,,0,0
1620713844218,197951,,0,0
1620713844218,197971,,0,0
1620713844218,197991,,0,0
1620713844218,198011,,0,0
1620713844218,198031,,0,0
1620713844218,198051,,0,0
1620713844218,198072,,0,0
1620713844218,198092,,0,0
1620713844218,198112,,0,0
1620713844218,198132,,0,0
1620713844218,198152,,0,0
1620713844218,198172,,0,0
1620713844218,198192,,0,0
1620713844724,198213,,0,0
1620713844724,198233,,0,0
1620713844724,198253,,0,0
1620713844724,198273,,0,0
1620713844724,198294,,0,0
1620713844724,198314,,0,0
1620713844724,198334,,0,0
1620713844724,198354,,0,0
1620713844724,198374,,0,0
1620713844724,198394,,0,0
1620713844724,198414,,0,0
1620713844724,198434,,0,0
1620713844724,198454,,0,0
1620713844724,198474,,0,0
1620713844724,198494,,0,0
1620713844724,198515,,0,0
1620713844724,198535,,0,0
1620713844724,198555,,0,0
1620713844724,198575,,0,0
1620713844724,198595,,0,0
1620713844724,198615,,0,0
1620713844724,198635,,0,0
1620713844724,198655,,0,0
1620713844724,198675,,0,0
1620713844724,198695,,0,0
1620713845224,198715,,0,0
1620713845224,198736,,0,0
1620713845224,198756,,0,0
1620713845224,198776,,0,0
1620713845224,198796,,0,0
1620713845224,198816,,0,0
1620713845224,198836,,0,0
1620713845224,198856,,0,0
1620713845224,198876,,0,0
1620713845224,198896,,0,0
1620713845224,198916,,0,0
1620713845224,198936,,0,0
1620713845224,198957,,0,0
1620713845224,198977,,0,0
1620713845224,198997,,0,0
1620713845224,199017,,0,0
1620713845224,199037,,0,0
1620713845224,199057,,0,0
1620713845224,199077,,0,0
1620713845224,199097,,0,0
1620713845224,199117,,0,0
1620713845224,199137,,0,0
1620713845224,199157,,0,0
1620713845224,199177,,0,0
1620713845224,199197,,0,0
1620713845724,199217,,0,0
1620713845724,199237,,0,0
1620713845724,199257,,0,0
1620713845724,199277,,0,0
1620713845724,199297,,0,0
1620713845724,199317,,0,0
1620713845724,199337,,0,0
1620713845724,199357,,0,0
1620713845724,199377,,0,0
1620713845724,199398,,0,0
1620713845724,199418,,0,0
1620713845724,199438,,0,0
1620713845724,199458,,0,0
1620713845724,199478,,0,0
1620713845724,199498,,0,0
1620713845724,199518,,0,0
1620713845724,199538,,0,0
1620713845724,199558,,0,0
1620713845724,199578,,0,0
1620713845724,199598,,0,0
1620713845724,199619,,0,0
1620713845724,199639,,0,0
1620713845724,199659,,0,0
1620713845724,199679,,0,0
1620713845724,199699,,0,0
1620713846231,199719,,0,0
1620713846231,199739,,0,0
1620713846231,199759,,0,0
1620713846231,199779,,0,0
1620713846231,199799,,0,0
1620713846231,199819,,0,0
1620713846231,199840,,0,0
1620713846231,199860,,0,0
1620713846231,199880,,0,0
1620713846231,199900,,0,0
1620713846231,199920,,0,0
1620713846231,199940,,0,0
1620713846231,199960,,0,0
1620713846231,199980,,0,0
1620713846231,200000,,0,0
1620713846231,200020,,0,0
1620713846231,200040,,0,0
1620713846231,200061,,0,0
1620713846231,200081,,0,0
1620713846231,200101,,0,0
1620713846231,200121,,0,0
1620713846231,200141,,0,0
1620713846231,200161,,0,0
1620713846231,200181,,0,0
1620713846231,200201,,0,0
1620713846739,200221,,0,0
1620713846739,200241,,0,0
1620713846739,200261,,0,0
1620713846739,200282,,0,0
1620713846739,200302,,0,0
1620713846739,200322,,0,0
1620713846739,200342,,0,0
1620713846739,200362,,0,0
1620713846739,200382,,0,0
1620713846739,200402,,0,0
1620713846739,200422,,0,0
1620713846739,200442,,0,0
1620713846739,200462,,0,0
1620713846739,200482,,0,0
1620713846739,200502,,0,0
1620713846739,200522,,0,0
1620713846739,200542,,0,0
1620713846739,200562,,0,0
1620713846739,200582,,0,0
1620713846739,200602,,0,0
1620713846739,200622,,0,0
1620713846739,200642,,0,0
1620713846739,200662,,0,0
1620713846739,200682,,0,0
1620713846739,200702,,0,0
1620713847231,200722,,0,0
1620713847231,200742,,0,0
1620713847231,200762,,0,0
1620713847231,200782,,0,0
1620713847231,200802,,0,0
1620713847231,200822,,0,0
1620713847231,200842,,0,0
1620713847231,200862,,0,0
1620713847231,200882,,0,0
1620713847231,200902,,0,0
1620713847231,200922,,0,0
1620713847231,200943,,0,0
1620713847231,200963,,0,0
1620713847231,200983,,0,0
1620713847231,201003,,0,0
1620713847231,201023,,0,0
1620713847231,201043,,0,0
1620713847231,201063,,0,0
1620713847231,201083,,0,0
1620713847231,201103,,0,0
1620713847231,201124,,0,0
1620713847231,201144,,0,0
1620713847231,201165,,0,0
1620713847231,201185,,0,0
1620713847231,201205,,0,0
1620713847735,201225,,0,0
1620713847735,201245,,0,0
1620713847735,201265,,0,0
1620713847735,201285,,0,0
1620713847735,201305,,0,0
1620713847735,201325,,0,0
1620713847735,201345,,0,0
1620713847735,201365,,0,0
1620713847735,201386,,0,0
1620713847735,201406,,0,0
1620713847735,201426,,0,0
1620713847735,201446,,0,0
1620713847735,201466,,0,0
1620713847735,201486,,0,0
1620713847735,201506,,0,0
1620713847735,201526,,0,0
1620713847735,201546,,0,0
1620713847735,201566,,0,0
1620713847735,201586,,0,0
1620713847735,201607,,0,0
1620713847735,201627,,0,0
1620713847735,201647,,0,0
1620713847735,201667,,0,0
1620713847735,201687,,0,0
1620713847735,201707,,0,0
1620713848239,201727,,0,0
1620713848239,201747,,0,0
1620713848239,201767,,0,0
1620713848239,201787,,0,0
1620713848239,201807,,0,0
1620713848239,201828,,0,0
1620713848239,201848,,0,0
1620713848239,201868,,0,0
1620713848239,201888,,0,0
1620713848239,201908,,0,0
1620713848239,201928,,0,0
1620713848239,201948,,0,0
1620713848239,201968,,0,0
1620713848239,201988,,0,0
1620713848239,202008,,0,0
1620713848239,202028,,0,0
1620713848239,202049,,0,0
1620713848239,202069,,0,0
1620713848239,202089,,0,0
1620713848239,202109,,0,0
1620713848239,202129,,0,0
1620713848239,202149,,0,0
1620713848239,202169,,0,0
1620713848239,202189,,0,0
1620713848239,202209,,0,0
1620713867330,220818,,0,0
1620713867330,220839,,0,0
1620713867330,220859,,0,0
1620713867330,220879,,0,0
1620713867330,220899,,0,0
1620713867330,220919,,0,0
1620713867330,220939,,0,0
1620713867330,220959,,0,0
1620713867330,220979,,0,0
1620713867330,220999,,0,0
1620713867330,221019,,0,0
1620713867330,221039,,0,0
1620713867330,221060,,0,0
1620713867330,221080,,0,0
1620713867330,221100,,0,0
1620713867330,221120,,0,0
1620713867330,221140,,0,0
1620713867330,221160,,0,0
1620713867330,221180,,0,0
1620713867330,221200,,0,0
1620713867330,221220,,0,0
1620713867330,221240,,0,0
1620713867330,221260,,0,0
1620713867330,221281,,0,0
1620713867330,221301,,0,0
1620713867830,221322,,0,0
1620713867830,221342,,0,0
1620713867830,221362,,0,0
1620713867830,221382,,0,0
1620713867830,221402,,0,0
1620713867830,221422,,0,0
1620713867830,221442,,0,0
1620713867830,221462,,0,0
1620713867830,221482,,0,0
1620713867830,221503,,0,0
1620713867830,221523,,0,0
1620713867830,221543,,0,0
1620713867830,221563,,0,0
1620713867830,221583,,0,0
1620713867830,221603,,0,0
1620713867830,221623,,0,0
1620713867830,221643,,0,0
1620713867830,221663,,0,0
1620713867830,221683,,0,0
1620713867830,221703,,0,0
1620713867830,221724,,0,0
1620713867830,221744,,0,0
1620713867830,221764,,0,0
1620713867830,221784,,0,0
1620713867830,221804,,0,0
1620713868333,221824,,0,0
1620713868333,221844,,0,0
1620713868333,221864,,0,0
1620713868333,221884,,0,0
1620713868333,221904,,0,0
1620713868333,221924,,0,0
1620713868333,221945,,0,0
1620713868333,221965,,0,0
1620713868333,221985,,0,0
1620713868333,222005,,0,0
1620713868333,222025,,0,0
1620713868333,222045,,0,0
1620713868333,222065,,0,0
1620713868333,222085,,0,0
1620713868333,222105,,0,0
1620713868333,222125,,0,0
1620713868333,222145,,0,0
1620713868333,222166,,0,0
1620713868333,222186,,0,0
1620713868333,222206,,0,0
1620713868333,222226,,0,0
1620713868333,222246,,0,0
1620713868333,222266,,0,0
1620713868333,222286,,0,0
1620713868333,222306,,0,0
1620713868840,222327,,0,0
1620713868840,222347,,0,0
1620713868840,222367,,0,0
1620713868840,222387,,0,0
1620713868840,222407,,0,0
1620713868840,222427,,0,0
1620713868840,222447,,0,0
1620713868840,222467,,0,0
1620713868840,222487,,0,0
1620713868840,222507,,0,0
1620713868840,222527,,0,0
1620713868840,222547,,0,0
1620713868840,222567,,0,0
1620713868840,222587,,0,0
1620713868840,222608,,0,0
1620713868840,222628,,0,0
1620713868840,222648,,0,0
1620713868840,222668,,0,0
1620713868840,222688,,0,0
1620713868840,222708,,0,0
1620713868840,222728,,0,0
1620713868840,222748,,0,0
1620713868840,222768,,0,0
1620713868840,222788,,0,0
1620713868840,222808,,0,0
1620713869340,222828,,0,0
1620713869340,222848,,0,0
1620713869340,222868,,0,0
1620713869340,222888,,0,0
1620713869340,222908,,0,0
1620713869340,222928,,0,0
1620713869340,222948,,0,0
1620713869340,222968,,0,0
1620713869340,222988,,0,0
1620713869340,223008,,0,0
1620713869340,223028,,0,0
1620713869340,223049,,0,0
1620713869340,223069,,0,0
1620713869340,223089,,0,0
1620713869340,223109,,0,0
1620713869340,223129,,0,0
1620713869340,223149,,0,0
1620713869340,223169,,0,0
1620713869340,223189,,0,0
1620713869340,223209,,0,0
1620713869340,223229,,0,0
1620713869340,223249,,0,0
1620713869340,223270,,0,0
1620713869340,223290,,0,0
1620713869340,223310,,0,0
1620713869839,223330,,0,0
1620713869839,223350,,0,0
1620713869839,223370,,0,0
1620713869839,223390,,0,0
1620713869839,223410,,0,0
1620713869839,223430,,0,0
1620713869839,223450,,0,0
1620713869839,223470,,0,0
1620713869839,223491,,0,0
1620713869839,223511,,0,0
1620713869839,223531,,0,0
1620713869839,223551,,0,0
1620713869839,223571,,0,0
1620713869839,223591,,0,0
1620713869839,223611,,0,0
1620713869839,223631,,0,0
1620713869839,223651,,0,0
1620713869839,223671,,0,0
1620713869839,223691,,0,0
1620713869839,223712,,0,0
1620713869839,223732,,0,0
1620713869839,223752,,0,0
1620713869839,223772,,0,0
1620713869839,223792,,0,0
1620713869839,223812,,0,0
1620713870342,223832,,0,0
1620713870342,223852,,0,0
1620713870342,223872,,0,0
1620713870342,223892,,0,0
1620713870342,223912,,0,0
1620713870342,223933,,0,0
1620713870342,223953,,0,0
1620713870342,223973,,0,0
1620713870342,223993,,0,0
1620713870342,224013,,0,0
1620713870342,224033,,0,0
1620713870342,224053,,0,0
1620713870342,224073,,0,0
1620713870342,224093,,0,0
1620713870342,224113,,0,0
1620713870342,224133,,0,0
1620713870342,224154,,0,0
1620713870342,224174,,0,0
1620713870342,224194,,0,0
1620713870342,224214,,0,0
1620713870342,224234,,0,0
1620713870342,224254,,0,0
1620713870342,224274,,0,0
1620713870342,224294,,0,0
1620713870342,224314,,0,0
1620713870842,224334,,0,0
1620713870842,224354,,0,0
1620713870842,224375,,0,0
1620713870842,224395,,0,0
1620713870842,224415,,0,0
1620713870842,224435,,0,0
1620713870842,224455,,0,0
1620713870842,224475,,0,0
1620713870842,224495,,0,0
1620713870842,224515,,0,0
1620713870842,224535,,0,0
1620713870842,224555,,0,0
1620713870842,224575,,0,0
1620713870842,224596,,0,0
1620713870842,224616,,0,0
1620713870842,224636,,0,0
1620713870842,224656,,0,0
1620713870842,224676,,0,0
1620713870842,224696,,0,0
1620713870842,224716,,0,0
1620713870842,224736,,0,0
1620713870842,224756,,0,0
1620713870842,224776,,0,0
1620713870842,224796,,0,0
1620713870842,224817,,0,0
1620713871343,224837,,0,0
1620713871343,224857,,0,0
1620713871343,224877,,0,0
1620713871343,224897,,0,0
1620713871343,224917,,0,0
1620713871343,224937,,0,0
1620713871343,224957,,0,0
1620713871343,224977,,0,0
1620713871343,224997,,0,0
1620713871343,225017,,0,0
1620713871343,225038,,0,0
1620713871343,225058,,0,0
1620713871343,225078,,0,0
1620713871343,225098,,0,0
1620713871343,225118,,0,0
1620713871343,225138,,0,0
1620713871343,225158,,0,0
1620713871343,225178,,0,0
1620713871343,225198,,0,0
1620713871343,225218,,0,0
1620713871343,225238,,0,0
1620713871343,225259,,0,0
1620713871343,225279,,0,0
1620713871343,225299,,0,0
1620713871343,225319,,0,0
1620713871850,225340,,0,0
1620713871850,225360,,0,0
1620713871850,225380,,0,0
1620713871850,225400,,0,0
1620713871850,225420,,0,0
1620713871850,225440,,0,0
1620713871850,225460,,0,0
1620713871850,225481,,0,0
1620713871850,225501,,0,0
1620713871850,225521,,0,0
1620713871850,225541,,0,0
1620713871850,225561,,0,0
1620713871850,225581,,0,0
1620713871850,225601,,0,0
1620713871850,225621,,0,0
1620713871850,225641,,0,0
1620713871850,225661,,0,0
1620713871850,225681,,0,0
1620713871850,225702,,0,0
1620713871850,225722,,0,0
1620713871850,225742,,0,0
1620713871850,225762,,0,0
1620713871850,225782,,0,0
1620713871850,225802,,0,0
1620713871850,225822,,0,0
1620713872350,225842,,0,0
1620713872350,225862,,0,0
1620713872350,225882,,0,0
1620713872350,225902,,0,0
1620713872350,225923,,0,0
1620713872350,225943,,0,0
1620713872350,225963,,0,0
1620713872350,225983,,0,0
1620713872350,226003,,0,0
1620713872350,226023,,0,0
1620713872350,226043,,0,0
1620713872350,226063,,0,0
1620713872350,226083,,0,0
1620713872350,226103,,0,0
1620713872350,226123,,0,0
1620713872350,226144,,0,0
1620713872350,226164,,0,0
1620713872350,226184,,0,0
1620713872350,226204,,0,0
1620713872350,226224,,0,0
1620713872350,226244,,0,0
1620713872350,226264,,0,0
1620713872350,226284,,0,0
1620713872350,226304,,0,0
1620713872350,226324,,0,0
1620713872851,226344,,0,0
1620713872851,226365,,0,0
1620713872851,226385,,0,0
1620713872851,226405,,0,0
1620713872851,226425,,0,0
1620713872851,226445,,0,0
1620713872851,226465,,0,0
1620713872851,226485,,0,0
1620713872851,226505,,0,0
1620713872851,226525,,0,0
1620713872851,226545,,0,0
1620713872851,226565,,0,0
1620713872851,226586,,0,0
1620713872851,226606,,0,0
1620713872851,226626,,0,0
1620713872851,226646,,0,0
1620713872851,226666,,0,0
1620713872851,226686,,0,0
1620713872851,226706,,0,0
1620713872851,226726,,0,0
1620713872851,226746,,0,0
1620713872851,226766,,0,0
1620713872851,226786,,0,0
1620713872851,226807,,0,0
1620713872851,226827,,0,0
1620713873358,226847,,0,0
1620713873358,226867,,0,0
1620713873358,226887,,0,0
1620713873358,226907,,0,0
1620713873358,226927,,0,0
1620713873358,226947,,0,0
1620713873358,226967,,0,0
1620713873358,226987,,0,0
1620713873358,227007,,0,0
1620713873358,227028,,0,0
1620713873358,227048,,0,0
1620713873358,227068,,0,0
1620713873358,227088,,0,0
1620713873358,227108,,0,0
1620713873358,227128,,0,0
1620713873358,227148,,0,0
1620713873358,227168,,0,0
1620713873358,227188,,0,0
1620713873358,227208,,0,0
1620713873358,227228,,0,0
1620713873358,227249,,0,0
1620713873358,227269,,0,0
1620713873358,227289,,0,0
1620713873358,227309,,0,0
1620713873358,227329,,0,0
1620713873858,227349,,0,0
1620713873858,227369,,0,0
1620713873858,227389,,0,0
1620713873858,227409,,0,0
1620713873858,227429,,0,0
1620713873858,227449,,0,0
1620713873858,227470,,0,0
1620713873858,227490,,0,0
1620713873858,227510,,0,0
1620713873858,227530,,0,0
1620713873858,227550,,0,0
1620713873858,227570,,0,0
1620713873858,227590,,0,0
1620713873858,227610,,0,0
1620713873858,227630,,0,0
1620713873858,227650,,0,0
1620713873858,227670,,0,0
1620713873858,227691,,0,0
1620713873858,227711,,0,0
1620713873858,227731,,0,0
1620713873858,227751,,0,0
1620713873858,227771,,0,0
1620713873858,227791,,0,0
1620713873858,227811,,0,0
1620713873858,227831,,0,0
1620713874366,227852,,0,0
1620713874366,227872,,0,0
1620713874366,227892,,0,0
1620713874366,227913,,0,0
1620713874366,227933,,0,0
1620713874366,227953,,0,0
1620713874366,227973,,0,0
1620713874366,227993,,0,0
1620713874366,228013,,0,0
1620713874366,228033,,0,0
1620713874366,228053,,0,0
1620713874366,228073,,0,0
1620713874366,228093,,0,0
1620713874366,228113,,0,0
1620713874366,228134,,0,0
1620713874366,228154,,0,0
1620713874366,228174,,0,0
1620713874366,228194,,0,0
1620713874366,228214,,0,0
1620713874366,228234,,0,0
1620713874366,228254,,0,0
1620713874366,228274,,0,0
1620713874366,228294,,0,0
1620713874366,228314,,0,0
1620713874366,228334,,0,0
1620713874867,228354,,0,0
1620713874867,228374,,0,0
1620713874867,228394,,0,0
1620713874867,228414,,0,0
1620713874867,228434,,0,0
1620713874867,228454,,0,0
1620713874867,228474,,0,0
1620713874867,228494,,0,0
1620713874867,228514,,0,0
1620713874867,228534,,0,0
1620713874867,228554,,0,0
1620713874867,228575,,0,0
1620713874867,228595,,0,0
1620713874867,228615,,0,0
1620713874867,228635,,0,0
1620713874867,228655,,0,0
1620713874867,228675,,0,0
1620713874867,228695,,0,0
1620713874867,228715,,0,0
1620713874867,228735,,0,0
1620713874867,228755,,0,0
1620713874867,228775,,0,0
1620713874867,228796,,0,0
1620713874867,228816,,0,0
1620713874867,228836,,0,0
1620713875365,228856,,0,0
1620713875365,228876,,0,0
1620713875365,228896,,0,0
1620713875365,228916,,0,0
1620713875365,228936,,0,0
1620713875365,228956,,0,0
1620713875365,228976,,0,0
1620713875365,228996,,0,0
1620713875365,229017,,0,0
1620713875365,229037,,0,0
1620713875365,229057,,0,0
1620713875365,229077,,0,0
1620713875365,229097,,0,0
1620713875365,229117,,0,0
1620713875365,229137,,0,0
1620713875365,229157,,0,0
1620713875365,229177,,0,0
1620713875365,229197,,0,0
1620713875365,229217,,0,0
1620713875365,229238,,0,0
1620713875365,229258,,0,0
1620713875365,229278,,0,0
1620713875365,229298,,0,0
1620713875365,229318,,0,0
1620713875365,229338,,0,0
1620713875868,229358,,0,0
1620713875868,229378,,0,0
1620713875868,229398,,0,0
1620713875868,229418,,0,0
1620713875868,229438,,0,0
1620713875868,229459,,0,0
1620713875868,229479,,0,0
1620713875868,229499,,0,0
1620713875868,229519,,0,0
1620713875868,229539,,0,0
1620713875868,229559,,0,0
1620713875868,229579,,0,0
1620713875868,229599,,0,0
1620713875868,229619,,0,0
1620713875868,229639,,0,0
1620713875868,229659,,0,0
1620713875868,229680,,0,0
1620713875868,229700,,0,0
1620713875868,229720,,0,0
1620713875868,229740,,0,0
1620713875868,229760,,0,0
1620713875868,229780,,0,0
1620713875868,229800,,0,0
1620713875868,229820,,0,0
1620713875868,229840,,0,0
1620713876374,229861,,0,0
1620713876374,229881,,0,0
1620713876374,229902,,0,0
1620713876374,229922,,0,0
1620713876374,229942,,0,0
1620713876374,229962,,0,0
1620713876374,229982,,0,0
1620713876374,230002,,0,0
1620713876374,230022,,0,0
1620713876374,230042,,0,0
1620713876374,230062,,0,0
1620713876374,230082,,0,0
1620713876374,230102,,0,0
1620713876374,230123,,0,0
1620713876374,230143,,0,0
1620713876374,230163,,0,0
1620713876374,230183,,0,0
1620713876374,230203,,0,0
1620713876374,230223,,0,0
1620713876374,230243,,0,0
1620713876374,230263,,0,0
1620713876374,230283,,0,0
1620713876374,230303,,0,0
1620713876374,230323,,0,0
1620713876374,230344,,0,0
1620713876873,230364,,0,0
1620713876873,230384,,0,0
1620713876873,230404,,0,0
1620713876873,230424,,0,0
1620713876873,230444,,0,0
1620713876873,230464,,0,0
1620713876873,230484,,0,0
1620713876873,230504,,0,0
1620713876873,230524,,0,0
1620713876873,230544,,0,0
1620713876873,230565,,0,0
1620713876873,230585,,0,0
1620713876873,230605,,0,0
1620713876873,230625,,0,0
1620713876873,230645,,0,0
1620713876873,230665,,0,0
1620713876873,230685,,0,0
1620713876873,230705,,0,0
1620713876873,230725,,0,0
1620713876873,230745,,0,0
1620713876873,230765,,0,0
1620713876873,230786,,0,0
1620713876873,230806,,0,0
1620713876873,230826,,0,0
1620713876873,230846,,0,0
1620713877376,230866,,0,0
1620713877376,230886,,0,0
1620713877376,230906,,0,0
1620713877376,230926,,0,0
1620713877376,230946,,0,0
1620713877376,230966,,0,0
1620713877376,230986,,0,0
1620713877376,231007,,0,0
1620713877376,231027,,0,0
1620713877376,231047,,0,0
1620713877376,231067,,0,0
1620713877376,231087,,0,0
1620713877376,231107,,0,0
1620713877376,231127,,0,0
1620713877376,231147,,0,0
1620713877376,231167,,0,0
1620713877376,231187,,0,0
1620713877376,231207,,0,0
1620713877376,231228,,0,0
1620713877376,231248,,0,0
1620713877376,231268,,0,0
1620713877376,231288,,0,0
1620713877376,231308,,0,0
1620713877376,231328,,0,0
1620713877376,231348,,0,0
1620713877877,231368,,0,0
1620713877877,231388,,0,0
1620713877877,231408,,0,0
1620713877877,231428,,0,0
1620713877877,231449,,0,0
1620713877877,231469,,0,0
1620713877877,231489,,0,0
1620713877877,231509,,0,0
1620713877877,231529,,0,0
1620713877877,231549,,0,0
1620713877877,231569,,0,0
1620713877877,231589,,0,0
1620713877877,231609,,0,0
1620713877877,231629,,0,0
1620713877877,231649,,0,0
1620713877877,231670,,0,0
1620713877877,231690,,0,0
1620713877877,231710,,0,0
1620713877877,231730,,0,0
1620713877877,231750,,0,0
1620713877877,231770,,0,0
1620713877877,231790,,0,0
1620713877877,231810,,0,0
1620713877877,231830,,0,0
1620713877877,231850,,0,0
1620713878380,231870,,0,0
1620713878380,231891,,0,0
1620713878380,231911,,0,0
1620713878380,231931,,0,0
1620713878380,231951,,0,0
1620713878380,231971,,0,0
1620713878380,231991,,0,0
1620713878380,232011,,0,0
1620713878380,232031,,0,0
1620713878380,232051,,0,0
1620713878380,232071,,0,0
1620713878380,232091,,0,0
1620713878380,232112,,0,0
1620713878380,232132,,0,0
1620713878380,232152,,0,0
1620713878380,232172,,0,0
1620713878380,232192,,0,0
1620713878380,232212,,0,0
1620713878380,232232,,0,0
1620713878380,232252,,0,0
1620713878380,232272,,0,0
1620713878380,232292,,0,0
1620713878380,232312,,0,0
1620713878380,232333,,0,0
1620713878380,232353,,0,0
1620713878880,232373,,0,0
1620713878880,232393,,0,0
1620713878880,232413,,0,0
1620713878880,232433,,0,0
1620713878880,232453,,0,0
1620713878880,232473,,0,0
1620713878880,232493,,0,0
1620713878880,232513,,0,0
1620713878880,232533,,0,0
1620713878880,232553,,0,0
1620713878880,232573,,0,0
1620713878880,232593,,0,0
1620713878880,232613,,0,0
1620713878880,232633,,0,0
1620713878880,232653,,0,0
1620713878880,232673,,0,0
1620713878880,232693,,0,0
1620713878880,232713,,0,0
1620713878880,232733,,0,0
1620713878880,232753,,0,0
1620713878880,232774,,0,0
1620713878880,232794,,0,0
1620713878880,232814,,0,0
1620713878880,232834,,0,0
1620713878880,232854,,0,0
1620713879382,232874,,0,0
1620713879382,232894,,0,0
1620713879382,232914,,0,0
1620713879382,232934,,0,0
1620713879382,232954,,0,0
1620713879382,232974,,0,0
1620713879382,232995,,0,0
1620713879382,233015,,0,0
1620713879382,233035,,0,0
1620713879382,233055,,0,0
1620713879382,233075,,0,0
1620713879382,233095,,0,0
1620713879382,233115,,0,0
1620713879382,233135,,0,0
1620713879382,233155,,0,0
1620713879382,233175,,0,0
1620713879382,233195,,0,0
1620713879382,233216,,0,0
1620713879382,233236,,0,0
1620713879382,233256,,0,0
1620713879382,233276,,0,0
1620713879382,233296,,0,0
1620713879382,233316,,0,0
1620713879382,233336,,0,0
1620713879382,233356,,0,0
1620713879985,233376,,0,0
1620713879985,233396,,0,0
1620713879985,233416,,0,0
1620713879985,233437,,0,0
1620713879985,233457,,0,0
1620713879985,233477,,0,0
1620713879985,233497,,0,0
1620713879985,233517,,0,0
1620713879985,233537,,0,0
1620713879985,233557,,0,0
1620713879985,233577,,0,0
1620713879985,233597,,0,0
1620713879985,233617,,0,0
1620713879985,233637,,0,0
1620713879985,233658,,0,0
1620713879985,233678,,0,0
1620713879985,233698,,0,0
1620713879985,233718,,0,0
1620713879985,233738,,0,0
1620713879985,233758,,0,0
1620713879985,233778,,0,0
1620713879985,233798,,0,0
1620713879985,233818,,0,0
1620713879985,233838,,0,0
1620713879985,233858,,0,0
1620713880392,233878,,0,0
1620713880392,233898,,0,0
1620713880392,233918,,0,0
1620713880392,233938,,0,0
1620713880392,233958,,0,0
1620713880392,233978,,0,0
1620713880392,233998,,0,0
1620713880392,234018,,0,0
1620713880392,234038,,0,0
1620713880392,234058,,0,0
1620713880392,234078,,0,0
1620713880392,234099,,0,0
1620713880392,234119,,0,0
1620713880392,234139,,0,0
1620713880392,234159,,0,0
1620713880392,234179,,0,0
1620713880392,234199,,0,0
1620713880392,234219,,0,0
1620713880392,234239,,0,0
1620713880392,234259,,0,0
1620713880392,234279,,0,0
1620713880392,234299,,0,0
1620713880392,234320,,0,0
1620713880392,234340,,0,0
1620713880392,234360,,0,0
1620713880891,234381,,0,0
1620713880891,234401,,0,0
1620713880891,234421,,0,0
1620713880891,234441,,0,0
1620713880891,234461,,0,0
1620713880891,234481,,0,0
1620713880891,234501,,0,0
1620713880891,234521,,0,0
1620713880891,234542,,0,0
1620713880891,234562,,0,0
1620713880891,234582,,0,0
1620713880891,234602,,0,0
1620713880891,234622,,0,0
1620713880891,234642,,0,0
1620713880891,234662,,0,0
1620713880891,234682,,0,0
1620713880891,234702,,0,0
1620713880891,234722,,0,0
1620713880891,234742,,0,0
1620713880891,234763,,0,0
1620713880891,234783,,0,0
1620713880891,234803,,0,0
1620713880891,234823,,0,0
1620713880891,234843,,0,0
1620713880891,234863,,0,0
1620713881393,234883,,0,0
1620713881393,234903,,0,0
1620713881393,234923,,0,0
1620713881393,234943,,0,0
1620713881393,234963,,0,0
1620713881393,234984,,0,0
1620713881393,235004,,0,0
1620713881393,235024,,0,0
1620713881393,235044,,0,0
1620713881393,235064,,0,0
1620713881393,235084,,0,0
1620713881393,235104,,0,0
1620713881393,235124,,0,0
1620713881393,235144,,0,0
1620713881393,235164,,0,0
1620713881393,235184,,0,0
1620713881393,235205,,0,0
1620713881393,235225,,0,0
1620713881393,235245,,0,0
1620713881393,235265,,0,0
1620713881393,235285,,0,0
1620713881393,235305,,0,0
1620713881393,235325,,0,0
1620713881393,235345,,0,0
1620713881393,235365,,0,0
1620713881893,235386,,0,0
1620713881893,235406,,0,0
1620713881893,235426,,0,0
1620713881893,235446,,0,0
1620713881893,235466,,0,0
1620713881893,235486,,0,0
1620713881893,235506,,0,0
1620713881893,235526,,0,0
1620713881893,235546,,0,0
1620713881893,235566,,0,0
1620713881893,235586,,0,0
1620713881893,235606,,0,0
1620713881893,235626,,0,0
1620713881893,235647,,0,0
1620713881893,235667,,0,0
1620713881893,235687,,0,0
1620713881893,235707,,0,0
1620713881893,235727,,0,0
1620713881893,235747,,0,0
1620713881893,235767,,0,0
1620713881893,235787,,0,0
1620713881893,235807,,0,0
1620713881893,235827,,0,0
1620713881893,235847,,0,0
1620713881893,235868,,0,0
1620713885916,239624,,0,0
1620713885916,239644,,0,0
1620713885916,239664,,0,0
1620713885916,239684,,0,0
1620713885916,239704,,0,0
1620713885916,239724,,0,0
1620713885916,239744,,0,0
1620713885916,239764,,0,0
1620713885916,239784,,0,0
1620713885916,239804,,0,0
1620713885916,239824,,0,0
1620713885916,239845,,0,0
1620713885916,239865,,0,0
1620713885916,239885,,0,0
1620713886475,239905,,0,0
1620713886475,239925,,0,0
1620713886475,239945,,0,0
1620713886475,239965,,0,0
1620713886475,239985,,0,0
1620713886475,240005,,0,0
1620713886475,240025,,0,0
1620713886475,240045,,0,0
1620713886475,240066,,0,0
1620713886475,240086,,0,0
1620713886475,240106,,0,0
1620713886475,240126,,0,0
1620713886475,240146,,0,0
1620713886475,240166,,0,0
1620713886475,240186,,0,0
1620713886475,240206,,0,0
1620713886475,240226,,0,0
1620713886475,240246,,0,0
1620713886475,240266,,0,0
1620713886475,240287,,0,0
1620713886475,240307,,0,0
1620713886475,240327,,0,0
1620713886475,240347,,0,0
1620713886475,240367,,0,0
1620713886475,240387,,0,0
1620713886930,240407,,0,0
1620713886930,240427,,0,0
1620713886930,240447,,0,0
1620713886930,240467,,0,0
1620713886930,240487,,0,0
1620713886930,240508,,0,0
1620713886930,240528,,0,0
1620713886930,240548,,0,0
1620713886930,240568,,0,0
1620713886930,240588,,0,0
1620713886930,240608,,0,0
1620713886930,240628,,0,0
1620713886930,240648,,0,0
1620713886930,240668,,0,0
1620713886930,240688,,0,0
1620713886930,240708,,0,0
1620713886930,240729,,0,0
1620713886930,240749,,0,0
1620713886930,240769,,0,0
1620713886930,240789,,0,0
1620713886930,240809,,0,0
1620713886930,240829,,0,0
1620713886930,240849,,0,0
1620713886930,240869,,0,0
1620713886930,240889,,0,0
1620713887419,240910,,0,0
1620713887419,240930,,0,0
1620713887419,240951,,0,0
1620713887419,240971,,0,0
1620713887419,240991,,0,0
1620713887419,241011,,0,0
1620713887419,241031,,0,0
1620713887419,241051,,0,0
1620713887419,241071,,0,0
1620713887419,241091,,0,0
1620713887419,241111,,0,0
1620713887419,241131,,0,0
1620713887419,241151,,0,0
1620713887419,241172,,0,0
1620713887419,241192,,0,0
1620713887419,241212,,0,0
1620713887419,241232,,0,0
1620713887419,241252,,0,0
1620713887419,241272,,0,0
1620713887419,241292,,0,0
1620713887419,241312,,0,0
1620713887419,241332,,0,0
1620713887419,241352,,0,0
1620713887419,241372,,0,0
1620713887419,241393,,0,0
1620713887926,241414,,0,0
1620713887926,241434,,0,0
1620713887926,241454,,0,0
1620713887926,241474,,0,0
1620713887926,241494,,0,0
1620713887926,241514,,0,0
1620713887926,241534,,0,0
1620713887926,241554,,0,0
1620713887926,241575,,0,0
1620713887926,241595,,0,0
1620713887926,241616,,0,0
1620713887926,241636,,0,0
1620713887926,241656,,0,0
1620713887926,241676,,0,0
1620713887926,241696,,0,0
1620713887926,241716,,0,0
1620713887926,241736,,0,0
1620713887926,241756,,0,0
1620713887926,241776,,0,0
1620713887926,241796,,0,0
1620713887926,241816,,0,0
1620713887926,241837,,0,0
1620713887926,241857,,0,0
1620713887926,241877,,0,0
1620713887926,241897,,0,0
1620713888425,241917,,0,0
1620713888425,241937,,0,0
1620713888425,241957,,0,0
1620713888425,241977,,0,0
1620713888425,241997,,0,0
1620713888425,242017,,0,0
1620713888425,242037,,0,0
1620713888425,242058,,0,0
1620713888425,242078,,0,0
1620713888425,242098,,0,0
1620713888425,242118,,0,0
1620713888425,242138,,0,0
1620713888425,242158,,0,0
1620713888425,242178,,0,0
1620713888425,242198,,0,0
1620713888425,242218,,0,0
1620713888425,242238,,0,0
1620713888425,242258,,0,0
1620713888425,242279,,0,0
1620713888425,242299,,0,0
1620713888425,242319,,0,0
1620713888425,242339,,0,0
1620713888425,242359,,0,0
1620713888425,242379,,0,0
1620713888425,242399,,0,0
1620713888928,242419,,0,0
1620713888928,242439,,0,0
1620713888928,242459,,0,0
1620713888928,242479,,0,0
1620713888928,242500,,0,0
1620713888928,242520,,0,0
1620713888928,242540,,0,0
1620713888928,242560,,0,0
1620713888928,242580,,0,0
1620713888928,242600,,0,0
1620713888928,242620,,0,0
1620713888928,242640,,0,0
1620713888928,242660,,0,0
1620713888928,242680,,0,0
1620713888928,242700,,0,0
1620713888928,242721,,0,0
1620713888928,242741,,0,0
1620713888928,242761,,0,0
1620713888928,242781,,0,0
1620713888928,242801,,0,0
1620713888928,242821,,0,0
1620713888928,242841,,0,0
1620713888928,242861,,0,0
1620713888928,242881,,0,0
1620713888928,242902,,0,0
1620713889450,242922,,0,0
1620713889450,242943,,0,0
1620713889450,242963,,0,0
1620713889450,242983,,0,0
1620713889450,243003,,0,0
1620713889450,243023,,0,0
1620713889450,243043,,0,0
1620713889450,243063,,0,0
1620713889450,243083,,0,0
1620713889450,243103,,0,0
1620713889450,243123,,0,0
1620713889450,243143,,0,0
1620713889450,243164,,0,0
1620713889450,243184,,0,0
1620713889450,243204,,0,0
1620713889450,243224,,0,0
1620713889450,243244,,0,0
1620713889450,243264,,0,0
1620713889450,243284,,0,0
1620713889450,243304,,0,0
1620713889450,243324,,0,0
1620713889450,243344,,0,0
1620713889450,243364,,0,0
1620713889450,243385,,0,0
1620713889450,243405,,0,0
1620713889936,243426,,0,0
1620713889936,243446,,0,0
1620713889936,243466,,0,0
1620713889936,243486,,0,0
1620713889936,243506,,0,0
1620713889936,243526,,0,0
1620713889936,243546,,0,0
1620713889936,243566,,0,0
1620713889936,243586,,0,0
1620713889936,243607,,0,0
1620713889936,243627,,0,0
1620713889936,243647,,0,0
1620713889936,243667,,0,0
1620713889936,243687,,0,0
1620713889936,243707,,0,0
1620713889936,243727,,0,0
1620713889936,243747,,0,0
1620713889936,243767,,0,0
1620713889936,243787,,0,0
1620713889936,243807,,0,0
1620713889936,243828,,0,0
1620713889936,243848,,0,0
1620713889936,243868,,0,0
1620713889936,243888,,0,0
1620713889936,243908,,0,0
1620713890435,243928,,0,0
1620713890435,243948,,0,0
1620713890435,243968,,0,0
1620713890435,243988,,0,0
1620713890435,244008,,0,0
1620713890435,244028,,0,0
1620713890435,244049,,0,0
1620713890435,244069,,0,0
1620713890435,244089,,0,0
1620713890435,244109,,0,0
1620713890435,244129,,0,0
1620713890435,244149,,0,0
1620713890435,244169,,0,0
1620713890435,244189,,0,0
1620713890435,244209,,0,0
1620713890435,244229,,0,0
1620713890435,244249,,0,0
1620713890435,244270,,0,0
1620713890435,244290,,0,0
1620713890435,244310,,0,0
1620713890435,244330,,0,0
1620713890435,244350,,0,0
1620713890435,244370,,0,0
1620713890435,244390,,0,0
1620713890435,244410,,0,0
1620713890942,244430,,0,0
1620713890942,244450,,0,0
1620713890942,244470,,0,0
1620713890942,244491,,0,0
1620713890942,244511,,0,0
1620713890942,244531,,0,0
1620713890942,244551,,0,0
1620713890942,244571,,0,0
1620713890942,244591,,0,0
1620713890942,244611,,0,0
1620713890942,244631,,0,0
1620713890942,244651,,0,0
1620713890942,244671,,0,0
1620713890942,244691,,0,0
1620713890942,244712,,0,0
1620713890942,244732,,0,0
1620713890942,244752,,0,0
1620713890942,244772,,0,0
1620713890942,244792,,0,0
1620713890942,244812,,0,0
1620713890942,244832,,0,0
1620713890942,244852,,0,0
1620713890942,244872,,0,0
1620713890942,244892,,0,0
1620713890942,244912,,0,0
1620713891440,244932,,0,0
1620713891440,244952,,0,0
1620713891440,244972,,0,0
1620713891440,244992,,0,0
1620713891440,245012,,0,0
1620713891440,245032,,0,0
1620713891440,245052,,0,0
1620713891440,245072,,0,0
1620713891440,245092,,0,0
1620713891440,245112,,0,0
1620713891440,245132,,0,0
1620713891440,245153,,0,0
1620713891440,245173,,0,0
1620713891440,245193,,0,0
1620713891440,245213,,0,0
1620713891440,245233,,0,0
1620713891440,245253,,0,0
1620713891440,245273,,0,0
1620713891440,245293,,0,0
1620713891440,245313,,0,0
1620713891440,245333,,0,0
1620713891440,245353,,0,0
1620713891440,245374,,0,0
1620713891440,245394,,0,0
1620713891440,245414,,0,0
1620713892009,245434,,0,0
1620713892009,245454,,0,0
1620713892009,245474,,0,0
1620713892009,245494,,0,0
1620713892009,245514,,0,0
1620713892009,245534,,0,0
1620713892009,245554,,0,0
1620713892009,245574,,0,0
1620713892009,245595,,0,0
1620713892009,245615,,0,0
1620713892009,245635,,0,0
1620713892009,245655,,0,0
1620713892009,245675,,0,0
1620713892009,245695,,0,0
1620713892009,245715,,0,0
1620713892009,245735,,0,0
1620713892009,245755,,0,0
1620713892009,245775,,0,0
1620713892009,245795,,0,0
1620713892009,245816,,0,0
1620713892009,245836,,0,0
1620713892009,245856,,0,0
1620713892009,245876,,0,0
1620713892009,245896,,0,0
1620713892009,245916,,0,0
1620713892450,245937,,0,0
1620713892450,245957,,0,0
1620713892450,245977,,0,0
1620713892450,245997,,0,0
1620713892450,246017,,0,0
1620713892450,246038,,0,0
1620713892450,246058,,0,0
1620713892450,246078,,0,0
1620713892450,246098,,0,0
1620713892450,246118,,0,0
1620713892450,246138,,0,0
1620713892450,246158,,0,0
1620713892450,246178,,0,0
1620713892450,246198,,0,0
1620713892450,246218,,0,0
1620713892450,246238,,0,0
1620713892450,246259,,0,0
1620713892450,246279,,0,0
1620713892450,246299,,0,0
1620713892450,246319,,0,0
1620713892450,246339,,0,0
1620713892450,246359,,0,0
1620713892450,246379,,0,0
1620713892450,246399,,0,0
1620713892450,246419,,0,0
1620713892949,246440,,0,0
1620713892949,246460,,0,0
1620713892949,246481,,0,0
1620713892949,246501,,0,0
1620713892949,246521,,0,0
1620713892949,246541,,0,0
1620713892949,246561,,0,0
1620713892949,246581,,0,0
1620713892949,246601,,0,0
1620713892949,246621,,0,0
1620713892949,246641,,0,0
1620713892949,246661,,0,0
1620713892949,246681,,0,0
1620713892949,246702,,0,0
1620713892949,246722,,0,0
1620713892949,246742,,0,0
1620713892949,246762,,0,0
1620713892949,246782,,0,0
1620713892949,246802,,0,0
1620713892949,246822,,0,0
1620713892949,246842,,0,0
1620713892949,246862,,0,0
1620713892949,246882,,0,0
1620713892949,246902,,0,0
1620713892949,246923,,0,0
1620713893454,246943,,0,0
1620713893454,246963,,0,0
1620713893454,246983,,0,0
1620713893454,247003,,0,0
1620713893454,247023,,0,0
1620713893454,247043,,0,0
1620713893454,247063,,0,0
1620713893454,247083,,0,0
1620713893454,247103,,0,0
1620713893454,247123,,0,0
1620713893454,247144,,0,0
1620713893454,247164,,0,0
1620713893454,247184,,0,0
1620713893454,247204,,0,0
1620713893454,247224,,0,0
1620713893454,247244,,0,0
1620713893454,247264,,0,0
1620713893454,247284,,0,0
1620713893454,247304,,0,0
1620713893454,247324,,0,0
1620713893454,247344,,0,0
1620713893454,247365,,0,0
1620713893454,247385,,0,0
1620713893454,247405,,0,0
1620713893454,247425,,0,0
1620713893959,247445,,0,0
1620713893959,247465,,0,0
1620713893959,247485,,0,0
1620713893959,247505,,0,0
1620713893959,247525,,0,0
1620713893959,247545,,0,0
1620713893959,247565,,0,0
1620713893959,247586,,0,0
1620713893959,247606,,0,0
1620713893959,247626,,0,0
1620713893959,247646,,0,0
1620713893959,247666,,0,0
1620713893959,247686,,0,0
1620713893959,247706,,0,0
1620713893959,247726,,0,0
1620713893959,247746,,0,0
1620713893959,247766,,0,0
1620713893959,247786,,0,0
1620713893959,247807,,0,0
1620713893959,247827,,0,0
1620713893959,247847,,0,0
1620713893959,247867,,0,0
1620713893959,247887,,0,0
1620713893959,247907,,0,0
1620713893959,247927,,0,0
1620713894459,247947,,0,0
1620713894459,247967,,0,0
1620713894459,247987,,0,0
1620713894459,248007,,0,0
1620713894459,248027,,0,0
1620713894459,248047,,0,0
1620713894459,248067,,0,0
1620713894459,248087,,0,0
1620713894459,248107,,0,0
1620713894459,248127,,0,0
1620713894459,248147,,0,0
1620713894459,248167,,0,0
1620713894459,248187,,0,0
1620713894459,248207,,0,0
1620713894459,248227,,0,0
1620713894459,248248,,0,0
1620713894459,248268,,0,0
1620713894459,248288,,0,0
1620713894459,248308,,0,0
1620713894459,248328,,0,0
1620713894459,248348,,0,0
1620713894459,248368,,0,0
1620713894459,248388,,0,0
1620713894459,248408,,0,0
1620713894459,248428,,0,0
1620713894961,248449,,0,0
1620713894961,248470,,0,0
1620713894961,248490,,0,0
1620713894961,248510,,0,0
1620713894961,248530,,0,0
1620713894961,248550,,0,0
1620713894961,248570,,0,0
1620713894961,248590,,0,0
1620713894961,248610,,0,0
1620713894961,248630,,0,0
1620713894961,248650,,0,0
1620713894961,248670,,0,0
1620713894961,248691,,0,0
1620713894961,248711,,0,0
1620713894961,248731,,0,0
1620713894961,248751,,0,0
1620713894961,248771,,0,0
1620713894961,248791,,0,0
1620713894961,248811,,0,0
1620713894961,248831,,0,0
1620713894961,248851,,0,0
1620713894961,248871,,0,0
1620713894961,248891,,0,0
1620713894961,248912,,0,0
1620713894961,248932,,0,0
1620713895467,248952,,0,0
1620713895467,248972,,0,0
1620713895467,248992,,0,0
1620713895467,249012,,0,0
1620713895467,249032,,0,0
1620713895467,249052,,0,0
1620713895467,249072,,0,0
1620713895467,249092,,0,0
1620713895467,249112,,0,0
1620713895467,249133,,0,0
1620713895467,249153,,0,0
1620713895467,249173,,0,0
1620713895467,249193,,0,0
1620713895467,249213,,0,0
1620713895467,249233,,0,0
1620713895467,249253,,0,0
1620713895467,249273,,0,0
1620713895467,249293,,0,0
1620713895467,249313,,0,0
1620713895467,249333,,0,0
1620713895467,249353,,0,0
1620713895467,249373,,0,0
1620713895467,249393,,0,0
1620713895467,249413,,0,0
1620713895467,249433,,0,0
1620713895985,249454,,0,0
1620713895985,249474,,0,0
1620713895985,249494,,0,0
1620713895985,249514,,0,0
1620713895985,249534,,0,0
1620713895985,249554,,0,0
1620713895985,249575,,0,0
1620713895985,249595,,0,0
1620713895985,249615,,0,0
1620713895985,249635,,0,0
1620713895985,249655,,0,0
1620713895985,249675,,0,0
1620713895985,249695,,0,0
1620713895985,249715,,0,0
1620713895985,249735,,0,0
1620713895985,249755,,0,0
1620713895985,249775,,0,0
1620713895985,249796,,0,0
1620713895985,249816,,0,0
1620713895985,249836,,0,0
1620713895985,249856,,0,0
1620713895985,249876,,0,0
1620713895985,249896,,0,0
1620713895985,249916,,0,0
1620713895985,249936,,0,0
1620713896464,249956,,0,0
1620713896464,249976,,0,0
1620713896464,249996,,0,0
1620713896464,250017,,0,0
1620713896464,250037,,0,0
1620713896464,250057,,0,0
1620713896464,250077,,0,0
1620713896464,250097,,0,0
1620713896464,250117,,0,0
1620713896464,250137,,0,0
1620713896464,250157,,0,0
1620713896464,250177,,0,0
1620713896464,250197,,0,0
1620713896464,250217,,0,0
1620713896464,250238,,0,0
1620713896464,250258,,0,0
1620713896464,250278,,0,0
1620713896464,250298,,0,0
1620713896464,250318,,0,0
1620713896464,250338,,0,0
1620713896464,250358,,0,0
1620713896464,250378,,0,0
1620713896464,250398,,0,0
1620713896464,250418,,0,0
1620713896464,250438,,0,0
1620713896967,250458,,0,0
1620713896967,250478,,0,0
1620713896967,250498,,0,0
1620713896967,250518,,0,0
1620713896967,250538,,0,0
1620713896967,250558,,0,0
1620713896967,250578,,0,0
1620713896967,250598,,0,0
1620713896967,250618,,0,0
1620713896967,250638,,0,0
1620713896967,250658,,0,0
1620713896967,250678,,0,0
1620713896967,250698,,0,0
1620713896967,250718,,0,0
1620713896967,250738,,0,0
1620713896967,250758,,0,0
1620713896967,250778,,0,0
1620713896967,250798,,0,0
1620713896967,250818,,0,0
1620713896967,250838,,0,0
1620713896967,250858,,0,0
1620713896967,250878,,0,0
1620713896967,250899,,0,0
1620713896967,250919,,0,0
1620713896967,250939,,0,0
1620713897467,250959,,0,0
1620713897467,250979,,0,0
1620713897467,250999,,0,0
1620713897467,251019,,0,0
1620713897467,251039,,0,0
1620713897467,251059,,0,0
1620713897467,251079,,0,0
1620713897467,251099,,0,0
1620713897467,251120,,0,0
1620713897467,251140,,0,0
1620713897467,251160,,0,0
1620713897467,251180,,0,0
1620713897467,251200,,0,0
1620713897467,251220,,0,0
1620713897467,251240,,0,0
1620713897467,251260,,0,0
1620713897467,251280,,0,0
1620713897467,251300,,0,0
1620713897467,251320,,0,0
1620713897467,251341,,0,0
1620713897467,251361,,0,0
1620713897467,251381,,0,0
1620713897467,251401,,0,0
1620713897467,251421,,0,0
1620713897467,251441,,0,0
1620713898345,251461,,0,0
1620713898345,251481,,0,0
1620713898345,251501,,0,0
1620713898345,251521,,0,0
1620713898345,251541,,0,0
1620713898345,251562,,0,0
1620713898345,251582,,0,0
1620713898345,251602,,0,0
1620713898345,251622,,0,0
1620713898345,251642,,0,0
1620713898345,251662,,0,0
1620713898345,251682,,0,0
1620713898345,251702,,0,0
1620713898345,251722,,0,0
1620713898345,251742,,0,0
1620713898345,251762,,0,0
1620713898345,251783,,0,0
1620713898345,251803,,0,0
1620713898345,251823,,0,0
1620713898345,251843,,0,0
1620713898345,251863,,0,0
1620713898345,251883,,0,0
1620713898345,251903,,0,0
1620713898345,251923,,0,0
1620713898345,251943,,0,0
1620713899196,251963,,0,0
1620713899196,251983,,0,0
1620713899196,252004,,0,0
1620713899196,252024,,0,0
1620713899196,252044,,0,0
1620713899196,252064,,0,0
1620713899196,252084,,0,0
1620713899196,252104,,0,0
1620713899196,252124,,0,0
1620713899196,252144,,0,0
1620713899196,252164,,0,0
1620713899196,252184,,0,0
1620713899196,252204,,0,0
1620713899196,252225,,0,0
1620713899196,252245,,0,0
1620713899196,252265,,0,0
1620713899196,252285,,0,0
1620713899196,252305,,0,0
1620713899196,252325,,0,0
1620713899196,252345,,0,0
1620713899196,252365,,0,0
1620713899196,252385,,0,0
1620713899196,252405,,0,0
1620713899196,252425,,0,0
1620713899196,252446,,0,0
1620713899225,252466,,0,0
1620713899225,252486,,0,0
1620713899225,252506,,0,0
1620713899225,252526,,0,0
1620713899225,252546,,0,0
1620713899225,252566,,0,0
1620713899225,252586,,0,0
1620713899225,252606,,0,0
1620713899225,252626,,0,0
1620713899225,252646,,0,0
1620713899225,252667,,0,0
1620713899225,252687,,0,0
1620713899225,252707,,0,0
1620713899225,252727,,0,0
1620713899225,252747,,0,0
1620713899225,252767,,0,0
1620713899225,252787,,0,0
1620713899225,252807,,0,0
1620713899225,252827,,0,0
1620713899225,252847,,0,0
1620713899225,252867,,0,0
1620713899225,252888,,0,0
1620713899225,252908,,0,0
1620713899225,252928,,0,0
1620713899225,252948,,0,0
1620713899738,252968,,0,0
1620713899738,252988,,0,0
1620713899738,253008,,0,0
1620713899738,253028,,0,0
1620713899738,253048,,0,0
1620713899738,253068,,0,0
1620713899738,253088,,0,0
1620713899738,253109,,0,0
1620713899738,253129,,0,0
1620713899738,253149,,0,0
1620713899738,253169,,0,0
1620713899738,253189,,0,0
1620713899738,253209,,0,0
1620713899738,253229,,0,0
1620713899738,253249,,0,0
1620713899738,253269,,0,0
1620713899738,253289,,0,0
1620713899738,253309,,0,0
1620713899738,253330,,0,0
1620713899738,253350,,0,0
1620713899738,253370,,0,0
1620713899738,253390,,0,0
1620713899738,253410,,0,0
1620713899738,253430,,0,0
1620713899738,253450,,0,0
1620713900049,253471,,0,0
1620713900049,253491,,0,0
1620713900049,253511,,0,0
1620713900049,253531,,0,0
1620713900049,253551,,0,0
1620713900049,253571,,0,0
1620713900049,253591,,0,0
1620713900049,253611,,0,0
1620713900049,253631,,0,0
1620713900049,253651,,0,0
1620713900049,253671,,0,0
1620713900049,253691,,0,0
1620713900049,253711,,0,0
1620713900049,253731,,0,0
1620713900049,253751,,0,0
1620713900049,253772,,0,0
1620713900049,253792,,0,0
1620713900049,253812,,0,0
1620713900049,253832,,0,0
1620713900049,253852,,0,0
1620713900049,253872,,0,0
1620713900049,253892,,0,0
1620713900049,253912,,0,0
1620713900049,253932,,0,0
1620713900049,253952,,0,0
1620713900482,253972,,0,0
1620713900482,253993,,0,0
1620713900482,254013,,0,0
1620713900482,254033,,0,0
1620713900482,254053,,0,0
1620713900482,254073,,0,0
1620713900482,254093,,0,0
1620713900482,254113,,0,0
1620713900482,254133,,0,0
1620713900482,254153,,0,0
1620713900482,254173,,0,0
1620713900482,254193,,0,0
1620713900482,254214,,0,0
1620713900482,254234,,0,0
1620713900482,254254,,0,0
1620713900482,254274,,0,0
1620713900482,254294,,0,0
1620713900482,254314,,0,0
1620713900482,254334,,0,0
1620713900482,254354,,0,0
1620713900482,254374,,0,0
1620713900482,254394,,0,0
1620713900482,254414,,0,0
1620713900482,254435,,0,0
1620713900482,254455,,0,0
1620713900983,254475,,0,0
1620713900983,254495,,0,0
1620713900983,254515,,0,0
1620713900983,254535,,0,0
1620713900983,254555,,0,0
1620713900983,254575,,0,0
1620713900983,254595,,0,0
1620713900983,254615,,0,0
1620713900983,254635,,0,0
1620713900983,254656,,0,0
1620713900983,254676,,0,0
1620713900983,254696,,0,0
1620713900983,254716,,0,0
1620713900983,254736,,0,0
1620713900983,254756,,0,0
1620713900983,254776,,0,0
1620713900983,254796,,0,0
1620713900983,254816,,0,0
1620713900983,254836,,0,0
1620713900983,254856,,0,0
1620713900983,254876,,0,0
1620713900983,254896,,0,0
1620713900983,254916,,0,0
1620713900983,254936,,0,0
1620713900983,254956,,0,0
1620713892450,245937,,0,0
1620713892450,245957,,0,0
1620713892450,245977,,0,0
1620713892450,245997,,0,0
1620713892450,246017,,0,0
1620713892450,246038,,0,0
1620713892450,246058,,0,0
1620713892450,246078,,0,0
1620713892450,246098,,0,0
1620713892450,246118,,0,0
1620713892450,246138,,0,0
1620713892450,246158,,0,0
1620713892450,246178,,0,0
1620713892450,246198,,0,0
1620713892450,246218,,0,0
1620713892450,246238,,0,0
1620713892450,246259,,0,0
1620713892450,246279,,0,0
1620713892450,246299,,0,0
1620713892450,246319,,0,0
1620713892450,246339,,0,0
1620713892450,246359,,0,0
1620713892450,246379,,0,0
1620713892450,246399,,0,0
1620713892450,246419,,0,0
1620713892949,246440,,0,0
1620713892949,246460,,0,0
1620713892949,246481,,0,0
1620713892949,246501,,0,0
1620713892949,246521,,0,0
1620713892949,246541,,0,0
1620713892949,246561,,0,0
1620713892949,246581,,0,0
1620713892949,246601,,0,0
1620713892949,246621,,0,0
1620713892949,246641,,0,0
1620713892949,246661,,0,0
1620713892949,246681,,0,0
1620713892949,246702,,0,0
1620713892949,246722,,0,0
1620713892949,246742,,0,0
1620713892949,246762,,0,0
1620713892949,246782,,0,0
1620713892949,246802,,0,0
1620713892949,246822,,0,0
1620713892949,246842,,0,0
1620713892949,246862,,0,0
1620713892949,246882,,0,0
1620713892949,246902,,0,0
1620713892949,246923,,0,0
1620713893454,246943,,0,0
1620713893454,246963,,0,0
1620713893454,246983,,0,0
1620713893454,247003,,0,0
1620713893454,247023,,0,0
1620713893454,247043,,0,0
1620713893454,247063,,0,0
1620713893454,247083,,0,0
1620713893454,247103,,0,0
1620713893454,247123,,0,0
1620713893454,247144,,0,0
1620713893454,247164,,0,0
1620713893454,247184,,0,0
1620713893454,247204,,0,0
1620713893454,247224,,0,0
1620713893454,247244,,0,0
1620713893454,247264,,0,0
1620713893454,247284,,0,0
1620713893454,247304,,0,0
1620713893454,247324,,0,0
1620713893454,247344,,0,0
1620713893454,247365,,0,0
1620713893454,247385,,0,0
1620713893454,247405,,0,0
1620713893454,247425,,0,0
1620713893959,247445,,0,0
1620713893959,247465,,0,0
1620713893959,247485,,0,0
1620713893959,247505,,0,0
1620713893959,247525,,0,0
1620713893959,247545,,0,0
1620713893959,247565,,0,0
1620713893959,247586,,0,0
1620713893959,247606,,0,0
1620713893959,247626,,0,0
1620713893959,247646,,0,0
1620713893959,247666,,0,0
1620713893959,247686,,0,0
1620713893959,247706,,0,0
1620713893959,247726,,0,0
1620713893959,247746,,0,0
1620713893959,247766,,0,0
1620713893959,247786,,0,0
1620713893959,247807,,0,0
1620713893959,247827,,0,0
1620713893959,247847,,0,0
1620713893959,247867,,0,0
1620713893959,247887,,0,0
1620713893959,247907,,0,0
1620713893959,247927,,0,0
1620713894459,247947,,0,0
1620713894459,247967,,0,0
1620713894459,247987,,0,0
1620713894459,248007,,0,0
1620713894459,248027,,0,0
1620713894459,248047,,0,0
1620713894459,248067,,0,0
1620713894459,248087,,0,0
1620713894459,248107,,0,0
1620713894459,248127,,0,0
1620713894459,248147,,0,0
1620713894459,248167,,0,0
1620713894459,248187,,0,0
1620713894459,248207,,0,0
1620713894459,248227,,0,0
1620713894459,248248,,0,0
1620713894459,248268,,0,0
1620713894459,248288,,0,0
1620713894459,248308,,0,0
1620713894459,248328,,0,0
1620713894459,248348,,0,0
1620713894459,248368,,0,0
1620713894459,248388,,0,0
1620713894459,248408,,0,0
1620713894459,248428,,0,0
1620713894961,248449,,0,0
1620713894961,248470,,0,0
1620713894961,248490,,0,0
1620713894961,248510,,0,0
1620713894961,248530,,0,0
1620713894961,248550,,0,0
1620713894961,248570,,0,0
1620713894961,248590,,0,0
1620713894961,248610,,0,0
1620713894961,248630,,0,0
1620713894961,248650,,0,0
1620713894961,248670,,0,0
1620713894961,248691,,0,0
1620713894961,248711,,0,0
1620713894961,248731,,0,0
1620713894961,248751,,0,0
1620713894961,248771,,0,0
1620713894961,248791,,0,0
1620713894961,248811,,0,0
1620713894961,248831,,0,0
1620713894961,248851,,0,0
1620713894961,248871,,0,0
1620713894961,248891,,0,0
1620713894961,248912,,0,0
1620713894961,248932,,0,0
1620713895467,248952,,0,0
1620713895467,248972,,0,0
1620713895467,248992,,0,0
1620713895467,249012,,0,0
1620713895467,249032,,0,0
1620713895467,249052,,0,0
1620713895467,249072,,0,0
1620713895467,249092,,0,0
1620713895467,249112,,0,0
1620713895467,249133,,0,0
1620713895467,249153,,0,0
1620713895467,249173,,0,0
1620713895467,249193,,0,0
1620713895467,249213,,0,0
1620713895467,249233,,0,0
1620713895467,249253,,0,0
1620713895467,249273,,0,0
1620713895467,249293,,0,0
1620713895467,249313,,0,0
1620713895467,249333,,0,0
1620713895467,249353,,0,0
1620713895467,249373,,0,0
1620713895467,249393,,0,0
1620713895467,249413,,0,0
1620713895467,249433,,0,0
1620713895985,249454,,0,0
1620713895985,249474,,0,0
1620713895985,249494,,0,0
1620713895985,249514,,0,0
1620713895985,249534,,0,0
1620713895985,249554,,0,0
1620713895985,249575,,0,0
1620713895985,249595,,0,0
1620713895985,249615,,0,0
1620713895985,249635,,0,0
1620713895985,249655,,0,0
1620713895985,249675,,0,0
1620713895985,249695,,0,0
1620713895985,249715,,0,0
1620713895985,249735,,0,0
1620713895985,249755,,0,0
1620713895985,249775,,0,0
1620713895985,249796,,0,0
1620713895985,249816,,0,0
1620713895985,249836,,0,0
1620713895985,249856,,0,0
1620713895985,249876,,0,0
1620713895985,249896,,0,0
1620713895985,249916,,0,0
1620713895985,249936,,0,0
1620713896464,249956,,0,0
1620713896464,249976,,0,0
1620713896464,249996,,0,0
1620713896464,250017,,0,0
1620713896464,250037,,0,0
1620713896464,250057,,0,0
1620713896464,250077,,0,0
1620713896464,250097,,0,0
1620713896464,250117,,0,0
1620713896464,250137,,0,0
1620713896464,250157,,0,0
1620713896464,250177,,0,0
1620713896464,250197,,0,0
1620713896464,250217,,0,0
1620713896464,250238,,0,0
1620713896464,250258,,0,0
1620713896464,250278,,0,0
1620713896464,250298,,0,0
1620713896464,250318,,0,0
1620713896464,250338,,0,0
1620713896464,250358,,0,0
1620713896464,250378,,0,0
1620713896464,250398,,0,0
1620713896464,250418,,0,0
1620713896464,250438,,0,0
1620713896967,250458,,0,0
1620713896967,250478,,0,0
1620713896967,250498,,0,0
1620713896967,250518,,0,0
1620713896967,250538,,0,0
1620713896967,250558,,0,0
1620713896967,250578,,0,0
1620713896967,250598,,0,0
1620713896967,250618,,0,0
1620713896967,250638,,0,0
1620713896967,250658,,0,0
1620713896967,250678,,0,0
1620713896967,250698,,0,0
1620713896967,250718,,0,0
1620713896967,250738,,0,0
1620713896967,250758,,0,0
1620713896967,250778,,0,0
1620713896967,250798,,0,0
1620713896967,250818,,0,0
1620713896967,250838,,0,0
1620713896967,250858,,0,0
1620713896967,250878,,0,0
1620713896967,250899,,0,0
1620713896967,250919,,0,0
1620713896967,250939,,0,0
1620713897467,250959,,0,0
1620713897467,250979,,0,0
1620713897467,250999,,0,0
1620713897467,251019,,0,0
1620713897467,251039,,0,0
1620713897467,251059,,0,0
1620713897467,251079,,0,0
1620713897467,251099,,0,0
1620713897467,251120,,0,0
1620713897467,251140,,0,0
1620713897467,251160,,0,0
1620713897467,251180,,0,0
1620713897467,251200,,0,0
1620713897467,251220,,0,0
1620713897467,251240,,0,0
1620713897467,251260,,0,0
1620713897467,251280,,0,0
1620713897467,251300,,0,0
1620713897467,251320,,0,0
1620713897467,251341,,0,0
1620713897467,251361,,0,0
1620713897467,251381,,0,0
1620713897467,251401,,0,0
1620713897467,251421,,0,0
1620713897467,251441,,0,0
1620713898345,251461,,0,0
1620713898345,251481,,0,0
1620713898345,251501,,0,0
1620713898345,251521,,0,0
1620713898345,251541,,0,0
1620713898345,251562,,0,0
1620713898345,251582,,0,0
1620713898345,251602,,0,0
1620713898345,251622,,0,0
1620713898345,251642,,0,0
1620713898345,251662,,0,0
1620713898345,251682,,0,0
1620713898345,251702,,0,0
1620713898345,251722,,0,0
1620713898345,251742,,0,0
1620713898345,251762,,0,0
1620713898345,251783,,0,0
1620713898345,251803,,0,0
1620713898345,251823,,0,0
1620713898345,251843,,0,0
1620713898345,251863,,0,0
1620713898345,251883,,0,0
1620713898345,251903,,0,0
1620713898345,251923,,0,0
1620713898345,251943,,0,0
1620713899196,251963,,0,0
1620713899196,251983,,0,0
1620713899196,252004,,0,0
1620713899196,252024,,0,0
1620713899196,252044,,0,0
1620713899196,252064,,0,0
1620713899196,252084,,0,0
1620713899196,252104,,0,0
1620713899196,252124,,0,0
1620713899196,252144,,0,0
1620713899196,252164,,0,0
1620713899196,252184,,0,0
1620713899196,252204,,0,0
1620713899196,252225,,0,0
1620713899196,252245,,0,0
1620713899196,252265,,0,0
1620713899196,252285,,0,0
1620713899196,252305,,0,0
1620713899196,252325,,0,0
1620713899196,252345,,0,0
1620713899196,252365,,0,0
1620713899196,252385,,0,0
1620713899196,252405,,0,0
1620713899196,252425,,0,0
1620713899196,252446,,0,0
1620713899225,252466,,0,0
1620713899225,252486,,0,0
1620713899225,252506,,0,0
1620713899225,252526,,0,0
1620713899225,252546,,0,0
1620713899225,252566,,0,0
1620713899225,252586,,0,0
1620713899225,252606,,0,0
1620713899225,252626,,0,0
1620713899225,252646,,0,0
1620713899225,252667,,0,0
1620713899225,252687,,0,0
1620713899225,252707,,0,0
1620713899225,252727,,0,0
1620713899225,252747,,0,0
1620713899225,252767,,0,0
1620713899225,252787,,0,0
1620713899225,252807,,0,0
1620713899225,252827,,0,0
1620713899225,252847,,0,0
1620713899225,252867,,0,0
1620713899225,252888,,0,0
1620713899225,252908,,0,0
1620713899225,252928,,0,0
1620713899225,252948,,0,0
1620713899738,252968,,0,0
1620713899738,252988,,0,0
1620713899738,253008,,0,0
1620713899738,253028,,0,0
1620713899738,253048,,0,0
1620713899738,253068,,0,0
1620713899738,253088,,0,0
1620713899738,253109,,0,0
1620713899738,253129,,0,0
1620713899738,253149,,0,0
1620713899738,253169,,0,0
1620713899738,253189,,0,0
1620713899738,253209,,0,0
1620713899738,253229,,0,0
1620713899738,253249,,0,0
1620713899738,253269,,0,0
1620713899738,253289,,0,0
1620713899738,253309,,0,0
1620713899738,253330,,0,0
1620713899738,253350,,0,0
1620713899738,253370,,0,0
1620713899738,253390,,0,0
1620713899738,253410,,0,0
1620713899738,253430,,0,0
1620713899738,253450,,0,0
1620713900049,253471,,0,0
1620713900049,253491,,0,0
1620713900049,253511,,0,0
1620713900049,253531,,0,0
1620713900049,253551,,0,0
1620713900049,253571,,0,0
1620713900049,253591,,0,0
1620713900049,253611,,0,0
1620713900049,253631,,0,0
1620713900049,253651,,0,0
1620713900049,253671,,0,0
1620713900049,253691,,0,0
1620713900049,253711,,0,0
1620713900049,253731,,0,0
1620713900049,253751,,0,0
1620713900049,253772,,0,0
1620713900049,253792,,0,0
1620713900049,253812,,0,0
1620713900049,253832,,0,0
1620713900049,253852,,0,0
1620713900049,253872,,0,0
1620713900049,253892,,0,0
1620713900049,253912,,0,0
1620713900049,253932,,0,0
1620713900049,253952,,0,0
1620713900482,253972,,0,0
1620713900482,253993,,0,0
1620713900482,254013,,0,0
1620713900482,254033,,0,0
1620713900482,254053,,0,0
1620713900482,254073,,0,0
1620713900482,254093,,0,0
1620713900482,254113,,0,0
1620713900482,254133,,0,0
1620713900482,254153,,0,0
1620713900482,254173,,0,0
1620713900482,254193,,0,0
1620713900482,254214,,0,0
1620713900482,254234,,0,0
1620713900482,254254,,0,0
1620713900482,254274,,0,0
1620713900482,254294,,0,0
1620713900482,254314,,0,0
1620713900482,254334,,0,0
1620713900482,254354,,0,0
1620713900482,254374,,0,0
1620713900482,254394,,0,0
1620713900482,254414,,0,0
1620713900482,254435,,0,0
1620713900482,254455,,0,0
1620713900983,254475,,0,0
1620713900983,254495,,0,0
1620713900983,254515,,0,0
1620713900983,254535,,0,0
1620713900983,254555,,0,0
1620713900983,254575,,0,0
1620713900983,254595,,0,0
1620713900983,254615,,0,0
1620713900983,254635,,0,0
1620713900983,254656,,0,0
1620713900983,254676,,0,0
1620713900983,254696,,0,0
1620713900983,254716,,0,0
1620713900983,254736,,0,0
1620713900983,254756,,0,0
1620713900983,254776,,0,0
1620713900983,254796,,0,0
1620713900983,254816,,0,0
1620713900983,254836,,0,0
1620713900983,254856,,0,0
1620713900983,254876,,0,0
1620713900983,254896,,0,0
1620713900983,254916,,0,0
1620713900983,254936,,0,0
1620713900983,254956,,0,0
1620713901492,254977,,0,0
1620713901492,254997,,0,0
1620713901492,255017,,0,0
1620713901492,255037,,0,0
1620713901492,255057,,0,0
1620713901492,255077,,0,0
1620713901492,255098,,0,0
1620713901492,255118,,0,0
1620713901492,255138,,0,0
1620713901492,255158,,0,0
1620713901492,255178,,0,0
1620713901492,255198,,0,0
1620713901492,255218,,0,0
1620713901492,255238,,0,0
1620713901492,255258,,0,0
1620713901492,255278,,0,0
1620713901492,255298,,0,0
1620713901492,255319,,0,0
1620713901492,255339,,0,0
1620713901492,255359,,0,0
1620713901492,255379,,0,0
1620713901492,255399,,0,0
1620713901492,255419,,0,0
1620713901492,255439,,0,0
1620713901492,255459,,0,0
1620713902074,255479,,0,0
1620713902074,255499,,0,0
1620713902074,255519,,0,0
1620713902074,255540,,0,0
1620713902074,255560,,0,0
1620713902074,255580,,0,0
1620713902074,255600,,0,0
1620713902074,255620,,0,0
1620713902074,255640,,0,0
1620713902074,255660,,0,0
1620713902074,255680,,0,0
1620713902074,255700,,0,0
1620713902074,255720,,0,0
1620713902074,255740,,0,0
1620713902074,255761,,0,0
1620713902074,255781,,0,0
1620713902074,255801,,0,0
1620713902074,255821,,0,0
1620713902074,255841,,0,0
1620713902074,255861,,0,0
1620713902074,255881,,0,0
1620713902074,255901,,0,0
1620713902074,255921,,0,0
1620713902074,255941,,0,0
1620713902074,255961,,0,0
1620713902512,255981,,0,0
1620713902512,256001,,0,0
1620713902512,256021,,0,0
1620713902512,256041,,0,0
1620713902512,256061,,0,0
1620713902512,256081,,0,0
1620713902512,256101,,0,0
1620713902512,256121,,0,0
1620713902512,256141,,0,0
1620713902512,256161,,0,0
1620713902512,256181,,0,0
1620713902512,256202,,0,0
1620713902512,256222,,0,0
1620713902512,256242,,0,0
1620713902512,256262,,0,0
1620713902512,256282,,0,0
1620713902512,256302,,0,0
1620713902512,256322,,0,0
1620713902512,256342,,0,0
1620713902512,256362,,0,0
1620713902512,256382,,0,0
1620713902512,256402,,0,0
1620713902512,256423,,0,0
1620713902512,256443,,0,0
1620713902512,256463,,0,0
1620713902991,256483,,0,0
1620713902991,256503,,0,0
1620713902991,256523,,0,0
1620713902991,256543,,0,0
1620713902991,256563,,0,0
1620713902991,256583,,0,0
1620713902991,256603,,0,0
1620713902991,256623,,0,0
1620713902991,256644,,0,0
1620713902991,256664,,0,0
1620713902991,256684,,0,0
1620713902991,256704,,0,0
1620713902991,256724,,0,0
1620713902991,256744,,0,0
1620713902991,256764,,0,0
1620713902991,256784,,0,0
1620713902991,256804,,0,0
1620713902991,256824,,0,0
1620713902991,256844,,0,0
1620713902991,256865,,0,0
1620713902991,256885,,0,0
1620713902991,256905,,0,0
1620713902991,256925,,0,0
1620713902991,256945,,0,0
1620713902991,256965,,0,0
1620713903495,256985,,0,0
1620713903495,257005,,0,0
1620713903495,257025,,0,0
1620713903495,257045,,0,0
1620713903495,257065,,0,0
1620713903495,257086,,0,0
1620713903495,257106,,0,0
1620713903495,257126,,0,0
1620713903495,257146,,0,0
1620713903495,257166,,0,0
1620713903495,257186,,0,0
1620713903495,257206,,0,0
1620713903495,257226,,0,0
1620713903495,257246,,0,0
1620713903495,257266,,0,0
1620713903495,257286,,0,0
1620713903495,257307,,0,0
1620713903495,257327,,0,0
1620713903495,257347,,0,0
1620713903495,257367,,0,0
1620713903495,257387,,0,0
1620713903495,257407,,0,0
1620713903495,257427,,0,0
1620713903495,257447,,0,0
1620713903495,257467,,0,0
1620713904006,257488,,0,0
1620713904006,257508,,0,0
1620713904006,257529,,0,0
1620713904006,257549,,0,0
1620713904006,257569,,0,0
1620713904006,257589,,0,0
1620713904006,257609,,0,0
1620713904006,257629,,0,0
1620713904006,257649,,0,0
1620713904006,257669,,0,0
1620713904006,257689,,0,0
1620713904006,257709,,0,0
1620713904006,257729,,0,0
1620713904006,257750,,0,0
1620713904006,257770,,0,0
1620713904006,257790,,0,0
1620713904006,257810,,0,0
1620713904006,257830,,0,0
1620713904006,257850,,0,0
1620713904006,257870,,0,0
1620713904006,257890,,0,0
1620713904006,257910,,0,0
1620713904006,257930,,0,0
1620713904006,257950,,0,0
1620713904006,257971,,0,0
1620713904498,257991,,0,0
1620713904498,258011,,0,0
1620713904498,258031,,0,0
1620713904498,258051,,0,0
1620713904498,258071,,0,0
1620713904498,258091,,0,0
1620713904498,258111,,0,0
1620713904498,258131,,0,0
1620713904498,258151,,0,0
1620713904498,258171,,0,0
1620713904498,258192,,0,0
1620713904498,258212,,0,0
1620713904498,258232,,0,0
1620713904498,258252,,0,0
1620713904498,258272,,0,0
1620713904498,258292,,0,0
1620713904498,258312,,0,0
1620713904498,258332,,0,0
1620713904498,258352,,0,0
1620713904498,258372,,0,0
1620713904498,258392,,0,0
1620713904498,258413,,0,0
1620713904498,258433,,0,0
1620713904498,258453,,0,0
1620713904498,258473,,0,0
1620713905004,258493,,0,0
1620713905004,258513,,0,0
1620713905004,258533,,0,0
1620713905004,258553,,0,0
1620713905004,258573,,0,0
1620713905004,258593,,0,0
1620713905004,258613,,0,0
1620713905004,258634,,0,0
1620713905004,258654,,0,0
1620713905004,258674,,0,0
1620713905004,258694,,0,0
1620713905004,258714,,0,0
1620713905004,258734,,0,0
1620713905004,258754,,0,0
1620713905004,258774,,0,0
1620713905004,258794,,0,0
1620713905004,258814,,0,0
1620713905004,258834,,0,0
1620713905004,258855,,0,0
1620713905004,258875,,0,0
1620713905004,258895,,0,0
1620713905004,258915,,0,0
1620713905004,258935,,0,0
1620713905004,258955,,0,0
1620713905004,258975,,0,0
1620713905506,258995,,0,0
1620713905506,259015,,0,0
1620713905506,259035,,0,0
1620713905506,259055,,0,0
1620713905506,259075,,0,0
1620713905506,259095,,0,0
1620713905506,259115,,0,0
1620713905506,259135,,0,0
1620713905506,259155,,0,0
1620713905506,259175,,0,0
1620713905506,259195,,0,0
1620713905506,259215,,0,0
1620713905506,259235,,0,0
1620713905506,259255,,0,0
1620713905506,259275,,0,0
1620713905506,259296,,0,0
1620713905506,259316,,0,0
1620713905506,259336,,0,0
1620713905506,259356,,0,0
1620713905506,259376,,0,0
1620713905506,259396,,0,0
1620713905506,259416,,0,0
1620713905506,259436,,0,0
1620713905506,259456,,0,0
1620713905506,259476,,0,0
1620713906005,259496,,0,0
1620713906005,259517,,0,0
1620713906005,259537,,0,0
1620713906005,259557,,0,0
1620713906005,259577,,0,0
1620713906005,259597,,0,0
1620713906005,259617,,0,0
1620713906005,259637,,0,0
1620713906005,259657,,0,0
1620713906005,259677,,0,0
1620713906005,259697,,0,0
1620713906005,259717,,0,0
1620713906005,259738,,0,0
1620713906005,259758,,0,0
1620713906005,259778,,0,0
1620713906005,259798,,0,0
1620713906005,259818,,0,0
1620713906005,259838,,0,0
1620713906005,259858,,0,0
1620713906005,259878,,0,0
1620713906005,259898,,0,0
1620713906005,259918,,0,0
1620713906005,259938,,0,0
1620713906005,259959,,0,0
1620713906005,259979,,0,0
1620713896967,250618,,0,0
1620713896967,250638,,0,0
1620713896967,250658,,0,0
1620713896967,250678,,0,0
1620713896967,250698,,0,0
1620713896967,250718,,0,0
1620713896967,250738,,0,0
1620713896967,250758,,0,0
1620713896967,250778,,0,0
1620713896967,250798,,0,0
1620713896967,250818,,0,0
1620713896967,250838,,0,0
1620713896967,250858,,0,0
1620713896967,250878,,0,0
1620713896967,250899,,0,0
1620713896967,250919,,0,0
1620713896967,250939,,0,0
1620713897467,250959,,0,0
1620713897467,250979,,0,0
1620713897467,250999,,0,0
1620713897467,251019,,0,0
1620713897467,251039,,0,0
1620713897467,251059,,0,0
1620713897467,251079,,0,0
1620713897467,251099,,0,0
1620713897467,251120,,0,0
1620713897467,251140,,0,0
1620713897467,251160,,0,0
1620713897467,251180,,0,0
1620713897467,251200,,0,0
1620713897467,251220,,0,0
1620713897467,251240,,0,0
1620713897467,251260,,0,0
1620713897467,251280,,0,0
1620713897467,251300,,0,0
1620713897467,251320,,0,0
1620713897467,251341,,0,0
1620713897467,251361,,0,0
1620713897467,251381,,0,0
1620713897467,251401,,0,0
1620713897467,251421,,0,0
1620713897467,251441,,0,0
1620713898345,251461,,0,0
1620713898345,251481,,0,0
1620713898345,251501,,0,0
1620713898345,251521,,0,0
1620713898345,251541,,0,0
1620713898345,251562,,0,0
1620713898345,251582,,0,0
1620713898345,251602,,0,0
1620713898345,251622,,0,0
1620713898345,251642,,0,0
1620713898345,251662,,0,0
1620713898345,251682,,0,0
1620713898345,251702,,0,0
1620713898345,251722,,0,0
1620713898345,251742,,0,0
1620713898345,251762,,0,0
1620713898345,251783,,0,0
1620713898345,251803,,0,0
1620713898345,251823,,0,0
1620713898345,251843,,0,0
1620713898345,251863,,0,0
1620713898345,251883,,0,0
1620713898345,251903,,0,0
1620713898345,251923,,0,0
1620713898345,251943,,0,0
1620713899196,251963,,0,0
1620713899196,251983,,0,0
1620713899196,252004,,0,0
1620713899196,252024,,0,0
1620713899196,252044,,0,0
1620713899196,252064,,0,0
1620713899196,252084,,0,0
1620713899196,252104,,0,0
1620713899196,252124,,0,0
1620713899196,252144,,0,0
1620713899196,252164,,0,0
1620713899196,252184,,0,0
1620713899196,252204,,0,0
1620713899196,252225,,0,0
1620713899196,252245,,0,0
1620713899196,252265,,0,0
1620713899196,252285,,0,0
1620713899196,252305,,0,0
1620713899196,252325,,0,0
1620713899196,252345,,0,0
1620713899196,252365,,0,0
1620713899196,252385,,0,0
1620713899196,252405,,0,0
1620713899196,252425,,0,0
1620713899196,252446,,0,0
1620713899225,252466,,0,0
1620713899225,252486,,0,0
1620713899225,252506,,0,0
1620713899225,252526,,0,0
1620713899225,252546,,0,0
1620713899225,252566,,0,0
1620713899225,252586,,0,0
1620713899225,252606,,0,0
1620713899225,252626,,0,0
1620713899225,252646,,0,0
1620713899225,252667,,0,0
1620713899225,252687,,0,0
1620713899225,252707,,0,0
1620713899225,252727,,0,0
1620713899225,252747,,0,0
1620713899225,252767,,0,0
1620713899225,252787,,0,0
1620713899225,252807,,0,0
1620713899225,252827,,0,0
1620713899225,252847,,0,0
1620713899225,252867,,0,0
1620713899225,252888,,0,0
1620713899225,252908,,0,0
1620713899225,252928,,0,0
1620713899225,252948,,0,0
1620713899738,252968,,0,0
1620713899738,252988,,0,0
1620713899738,253008,,0,0
1620713899738,253028,,0,0
1620713899738,253048,,0,0
1620713899738,253068,,0,0
1620713899738,253088,,0,0
1620713899738,253109,,0,0
1620713899738,253129,,0,0
1620713899738,253149,,0,0
1620713899738,253169,,0,0
1620713899738,253189,,0,0
1620713899738,253209,,0,0
1620713899738,253229,,0,0
1620713899738,253249,,0,0
1620713899738,253269,,0,0
1620713899738,253289,,0,0
1620713899738,253309,,0,0
1620713899738,253330,,0,0
1620713899738,253350,,0,0
1620713899738,253370,,0,0
1620713899738,253390,,0,0
1620713899738,253410,,0,0
1620713899738,253430,,0,0
1620713899738,253450,,0,0
1620713900049,253471,,0,0
1620713900049,253491,,0,0
1620713900049,253511,,0,0
1620713900049,253531,,0,0
1620713900049,253551,,0,0
1620713900049,253571,,0,0
1620713900049,253591,,0,0
1620713900049,253611,,0,0
1620713900049,253631,,0,0
1620713900049,253651,,0,0
1620713900049,253671,,0,0
1620713900049,253691,,0,0
1620713900049,253711,,0,0
1620713900049,253731,,0,0
1620713900049,253751,,0,0
1620713900049,253772,,0,0
1620713900049,253792,,0,0
1620713900049,253812,,0,0
1620713900049,253832,,0,0
1620713900049,253852,,0,0
1620713900049,253872,,0,0
1620713900049,253892,,0,0
1620713900049,253912,,0,0
1620713900049,253932,,0,0
1620713900049,253952,,0,0
1620713900482,253972,,0,0
1620713900482,253993,,0,0
1620713900482,254013,,0,0
1620713900482,254033,,0,0
1620713900482,254053,,0,0
1620713900482,254073,,0,0
1620713900482,254093,,0,0
1620713900482,254113,,0,0
1620713900482,254133,,0,0
1620713900482,254153,,0,0
1620713900482,254173,,0,0
1620713900482,254193,,0,0
1620713900482,254214,,0,0
1620713900482,254234,,0,0
1620713900482,254254,,0,0
1620713900482,254274,,0,0
1620713900482,254294,,0,0
1620713900482,254314,,0,0
1620713900482,254334,,0,0
1620713900482,254354,,0,0
1620713900482,254374,,0,0
1620713900482,254394,,0,0
1620713900482,254414,,0,0
1620713900482,254435,,0,0
1620713900482,254455,,0,0
1620713900983,254475,,0,0
1620713900983,254495,,0,0
1620713900983,254515,,0,0
1620713900983,254535,,0,0
1620713900983,254555,,0,0
1620713900983,254575,,0,0
1620713900983,254595,,0,0
1620713900983,254615,,0,0
1620713900983,254635,,0,0
1620713900983,254656,,0,0
1620713900983,254676,,0,0
1620713900983,254696,,0,0
1620713900983,254716,,0,0
1620713900983,254736,,0,0
1620713900983,254756,,0,0
1620713900983,254776,,0,0
1620713900983,254796,,0,0
1620713900983,254816,,0,0
1620713900983,254836,,0,0
1620713900983,254856,,0,0
1620713900983,254876,,0,0
1620713900983,254896,,0,0
1620713900983,254916,,0,0
1620713900983,254936,,0,0
1620713900983,254956,,0,0
1620713901492,254977,,0,0
1620713901492,254997,,0,0
1620713901492,255017,,0,0
1620713901492,255037,,0,0
1620713901492,255057,,0,0
1620713901492,255077,,0,0
1620713901492,255098,,0,0
1620713901492,255118,,0,0
1620713901492,255138,,0,0
1620713901492,255158,,0,0
1620713901492,255178,,0,0
1620713901492,255198,,0,0
1620713901492,255218,,0,0
1620713901492,255238,,0,0
1620713901492,255258,,0,0
1620713901492,255278,,0,0
1620713901492,255298,,0,0
1620713901492,255319,,0,0
1620713901492,255339,,0,0
1620713901492,255359,,0,0
1620713901492,255379,,0,0
1620713901492,255399,,0,0
1620713901492,255419,,0,0
1620713901492,255439,,0,0
1620713901492,255459,,0,0
1620713902074,255479,,0,0
1620713902074,255499,,0,0
1620713902074,255519,,0,0
1620713902074,255540,,0,0
1620713902074,255560,,0,0
1620713902074,255580,,0,0
1620713902074,255600,,0,0
1620713902074,255620,,0,0
1620713902074,255640,,0,0
1620713902074,255660,,0,0
1620713902074,255680,,0,0
1620713902074,255700,,0,0
1620713902074,255720,,0,0
1620713902074,255740,,0,0
1620713902074,255761,,0,0
1620713902074,255781,,0,0
1620713902074,255801,,0,0
1620713902074,255821,,0,0
1620713902074,255841,,0,0
1620713902074,255861,,0,0
1620713902074,255881,,0,0
1620713902074,255901,,0,0
1620713902074,255921,,0,0
1620713902074,255941,,0,0
1620713902074,255961,,0,0
1620713902512,255981,,0,0
1620713902512,256001,,0,0
1620713902512,256021,,0,0
1620713902512,256041,,0,0
1620713902512,256061,,0,0
1620713902512,256081,,0,0
1620713902512,256101,,0,0
1620713902512,256121,,0,0
1620713902512,256141,,0,0
1620713902512,256161,,0,0
1620713902512,256181,,0,0
1620713902512,256202,,0,0
1620713902512,256222,,0,0
1620713902512,256242,,0,0
1620713902512,256262,,0,0
1620713902512,256282,,0,0
1620713902512,256302,,0,0
1620713902512,256322,,0,0
1620713902512,256342,,0,0
1620713902512,256362,,0,0
1620713902512,256382,,0,0
1620713902512,256402,,0,0
1620713902512,256423,,0,0
1620713902512,256443,,0,0
1620713902512,256463,,0,0
1620713902991,256483,,0,0
1620713902991,256503,,0,0
1620713902991,256523,,0,0
1620713902991,256543,,0,0
1620713902991,256563,,0,0
1620713902991,256583,,0,0
1620713902991,256603,,0,0
1620713902991,256623,,0,0
1620713902991,256644,,0,0
1620713902991,256664,,0,0
1620713902991,256684,,0,0
1620713902991,256704,,0,0
1620713902991,256724,,0,0
1620713902991,256744,,0,0
1620713902991,256764,,0,0
1620713902991,256784,,0,0
1620713902991,256804,,0,0
1620713902991,256824,,0,0
1620713902991,256844,,0,0
1620713902991,256865,,0,0
1620713902991,256885,,0,0
1620713902991,256905,,0,0
1620713902991,256925,,0,0
1620713902991,256945,,0,0
1620713902991,256965,,0,0
1620713903495,256985,,0,0
1620713903495,257005,,0,0
1620713903495,257025,,0,0
1620713903495,257045,,0,0
1620713903495,257065,,0,0
1620713903495,257086,,0,0
1620713903495,257106,,0,0
1620713903495,257126,,0,0
1620713903495,257146,,0,0
1620713903495,257166,,0,0
1620713903495,257186,,0,0
1620713903495,257206,,0,0
1620713903495,257226,,0,0
1620713903495,257246,,0,0
1620713903495,257266,,0,0
1620713903495,257286,,0,0
1620713903495,257307,,0,0
1620713903495,257327,,0,0
1620713903495,257347,,0,0
1620713903495,257367,,0,0
1620713903495,257387,,0,0
1620713903495,257407,,0,0
1620713903495,257427,,0,0
1620713903495,257447,,0,0
1620713903495,257467,,0,0
1620713904006,257488,,0,0
1620713904006,257508,,0,0
1620713904006,257529,,0,0
1620713904006,257549,,0,0
1620713904006,257569,,0,0
1620713904006,257589,,0,0
1620713904006,257609,,0,0
1620713904006,257629,,0,0
1620713904006,257649,,0,0
1620713904006,257669,,0,0
1620713904006,257689,,0,0
1620713904006,257709,,0,0
1620713904006,257729,,0,0
1620713904006,257750,,0,0
1620713904006,257770,,0,0
1620713904006,257790,,0,0
1620713904006,257810,,0,0
1620713904006,257830,,0,0
1620713904006,257850,,0,0
1620713904006,257870,,0,0
1620713904006,257890,,0,0
1620713904006,257910,,0,0
1620713904006,257930,,0,0
1620713904006,257950,,0,0
1620713904006,257971,,0,0
1620713904498,257991,,0,0
1620713904498,258011,,0,0
1620713904498,258031,,0,0
1620713904498,258051,,0,0
1620713904498,258071,,0,0
1620713904498,258091,,0,0
1620713904498,258111,,0,0
1620713904498,258131,,0,0
1620713904498,258151,,0,0
1620713904498,258171,,0,0
1620713904498,258192,,0,0
1620713904498,258212,,0,0
1620713904498,258232,,0,0
1620713904498,258252,,0,0
1620713904498,258272,,0,0
1620713904498,258292,,0,0
1620713904498,258312,,0,0
1620713904498,258332,,0,0
1620713904498,258352,,0,0
1620713904498,258372,,0,0
1620713904498,258392,,0,0
1620713904498,258413,,0,0
1620713904498,258433,,0,0
1620713904498,258453,,0,0
1620713904498,258473,,0,0
1620713905004,258493,,0,0
1620713905004,258513,,0,0
1620713905004,258533,,0,0
1620713905004,258553,,0,0
1620713905004,258573,,0,0
1620713905004,258593,,0,0
1620713905004,258613,,0,0
1620713905004,258634,,0,0
1620713905004,258654,,0,0
1620713905004,258674,,0,0
1620713905004,258694,,0,0
1620713905004,258714,,0,0
1620713905004,258734,,0,0
1620713905004,258754,,0,0
1620713905004,258774,,0,0
1620713905004,258794,,0,0
1620713905004,258814,,0,0
1620713905004,258834,,0,0
1620713905004,258855,,0,0
1620713905004,258875,,0,0
1620713905004,258895,,0,0
1620713905004,258915,,0,0
1620713905004,258935,,0,0
1620713905004,258955,,0,0
1620713905004,258975,,0,0
1620713905506,258995,,0,0
1620713905506,259015,,0,0
1620713905506,259035,,0,0
1620713905506,259055,,0,0
1620713905506,259075,,0,0
1620713905506,259095,,0,0
1620713905506,259115,,0,0
1620713905506,259135,,0,0
1620713905506,259155,,0,0
1620713905506,259175,,0,0
1620713905506,259195,,0,0
1620713905506,259215,,0,0
1620713905506,259235,,0,0
1620713905506,259255,,0,0
1620713905506,259275,,0,0
1620713905506,259296,,0,0
1620713905506,259316,,0,0
1620713905506,259336,,0,0
1620713905506,259356,,0,0
1620713905506,259376,,0,0
1620713905506,259396,,0,0
1620713905506,259416,,0,0
1620713905506,259436,,0,0
1620713905506,259456,,0,0
1620713905506,259476,,0,0
1620713906005,259496,,0,0
1620713906005,259517,,0,0
1620713906005,259537,,0,0
1620713906005,259557,,0,0
1620713906005,259577,,0,0
1620713906005,259597,,0,0
1620713906005,259617,,0,0
1620713906005,259637,,0,0
1620713906005,259657,,0,0
1620713906005,259677,,0,0
1620713906005,259697,,0,0
1620713906005,259717,,0,0
1620713906005,259738,,0,0
1620713906005,259758,,0,0
1620713906005,259778,,0,0
1620713906005,259798,,0,0
1620713906005,259818,,0,0
1620713906005,259838,,0,0
1620713906005,259858,,0,0
1620713906005,259878,,0,0
1620713906005,259898,,0,0
1620713906005,259918,,0,0
1620713906005,259938,,0,0
1620713906005,259959,,0,0
1620713906005,259979,,0,0
1620713906508,260000,,0,0
1620713906508,260020,,0,0
1620713906508,260040,,0,0
1620713906508,260060,,0,0
1620713906508,260080,,0,0
1620713906508,260100,,0,0
1620713906508,260120,,0,0
1620713906508,260140,,0,0
1620713906508,260160,,0,0
1620713906508,260181,,0,0
1620713906508,260201,,0,0
1620713906508,260221,,0,0
1620713906508,260241,,0,0
1620713906508,260261,,0,0
1620713906508,260281,,0,0
1620713906508,260301,,0,0
1620713906508,260321,,0,0
1620713906508,260341,,0,0
1620713906508,260361,,0,0
1620713906508,260381,,0,0
1620713906508,260402,,0,0
1620713906508,260422,,0,0
1620713906508,260442,,0,0
1620713906508,260462,,0,0
1620713906508,260482,,0,0
1620713907011,260502,,0,0
1620713907011,260522,,0,0
1620713907011,260542,,0,0
1620713907011,260562,,0,0
1620713907011,260582,,0,0
1620713907011,260602,,0,0
1620713907011,260623,,0,0
1620713907011,260643,,0,0
1620713907011,260663,,0,0
1620713907011,260683,,0,0
1620713907011,260703,,0,0
1620713907011,260723,,0,0
1620713907011,260743,,0,0
1620713907011,260763,,0,0
1620713907011,260783,,0,0
1620713907011,260803,,0,0
1620713907011,260823,,0,0
1620713907011,260844,,0,0
1620713907011,260864,,0,0
1620713907011,260884,,0,0
1620713907011,260904,,0,0
1620713907011,260924,,0,0
1620713907011,260944,,0,0
1620713907011,260964,,0,0
1620713907011,260984,,0,0
1620713907551,261004,,0,0
1620713907551,261024,,0,0
1620713907551,261044,,0,0
1620713907551,261065,,0,0
1620713907551,261085,,0,0
1620713907551,261105,,0,0
1620713907551,261125,,0,0
1620713907551,261145,,0,0
1620713907551,261165,,0,0
1620713907551,261185,,0,0
1620713907551,261205,,0,0
1620713907551,261225,,0,0
1620713907551,261245,,0,0
1620713907551,261265,,0,0
1620713907551,261286,,0,0
1620713907551,261306,,0,0
1620713907551,261326,,0,0
1620713907551,261346,,0,0
1620713907551,261366,,0,0
1620713907551,261386,,0,0
1620713907551,261406,,0,0
1620713907551,261426,,0,0
1620713907551,261446,,0,0
1620713907551,261466,,0,0
1620713907551,261486,,0,0
1620713908063,261506,,0,0
1620713908063,261526,,0,0
1620713908063,261546,,0,0
1620713908063,261566,,0,0
1620713908063,261586,,0,0
1620713908063,261606,,0,0
1620713908063,261626,,0,0
1620713908063,261646,,0,0
1620713908063,261666,,0,0
1620713908063,261686,,0,0
1620713908063,261706,,0,0
1620713908063,261727,,0,0
1620713908063,261747,,0,0
1620713908063,261767,,0,0
1620713908063,261787,,0,0
1620713908063,261807,,0,0
1620713908063,261827,,0,0
1620713908063,261847,,0,0
1620713908063,261867,,0,0
1620713908063,261887,,0,0
1620713908063,261907,,0,0
1620713908063,261927,,0,0
1620713908063,261947,,0,0
1620713908063,261967,,0,0
1620713908063,261987,,0,0
1620713904006,257609,,0,0
1620713904006,257629,,0,0
1620713904006,257649,,0,0
1620713904006,257669,,0,0
1620713904006,257689,,0,0
1620713904006,257709,,0,0
1620713904006,257729,,0,0
1620713904006,257750,,0,0
1620713904006,257770,,0,0
1620713904006,257790,,0,0
1620713904006,257810,,0,0
1620713904006,257830,,0,0
1620713904006,257850,,0,0
1620713904006,257870,,0,0
1620713904006,257890,,0,0
1620713904006,257910,,0,0
1620713904006,257930,,0,0
1620713904006,257950,,0,0
1620713904006,257971,,0,0
1620713904498,257991,,0,0
1620713904498,258011,,0,0
1620713904498,258031,,0,0
1620713904498,258051,,0,0
1620713904498,258071,,0,0
1620713904498,258091,,0,0
1620713904498,258111,,0,0
1620713904498,258131,,0,0
1620713904498,258151,,0,0
1620713904498,258171,,0,0
1620713904498,258192,,0,0
1620713904498,258212,,0,0
1620713904498,258232,,0,0
1620713904498,258252,,0,0
1620713904498,258272,,0,0
1620713904498,258292,,0,0
1620713904498,258312,,0,0
1620713904498,258332,,0,0
1620713904498,258352,,0,0
1620713904498,258372,,0,0
1620713904498,258392,,0,0
1620713904498,258413,,0,0
1620713904498,258433,,0,0
1620713904498,258453,,0,0
1620713904498,258473,,0,0
1620713905004,258493,,0,0
1620713905004,258513,,0,0
1620713905004,258533,,0,0
1620713905004,258553,,0,0
1620713905004,258573,,0,0
1620713905004,258593,,0,0
1620713905004,258613,,0,0
1620713905004,258634,,0,0
1620713905004,258654,,0,0
1620713905004,258674,,0,0
1620713905004,258694,,0,0
1620713905004,258714,,0,0
1620713905004,258734,,0,0
1620713905004,258754,,0,0
1620713905004,258774,,0,0
1620713905004,258794,,0,0
1620713905004,258814,,0,0
1620713905004,258834,,0,0
1620713905004,258855,,0,0
1620713905004,258875,,0,0
1620713905004,258895,,0,0
1620713905004,258915,,0,0
1620713905004,258935,,0,0
1620713905004,258955,,0,0
1620713905004,258975,,0,0
1620713905506,258995,,0,0
1620713905506,259015,,0,0
1620713905506,259035,,0,0
1620713905506,259055,,0,0
1620713905506,259075,,0,0
1620713905506,259095,,0,0
1620713905506,259115,,0,0
1620713905506,259135,,0,0
1620713905506,259155,,0,0
1620713905506,259175,,0,0
1620713905506,259195,,0,0
1620713905506,259215,,0,0
1620713905506,259235,,0,0
1620713905506,259255,,0,0
1620713905506,259275,,0,0
1620713905506,259296,,0,0
1620713905506,259316,,0,0
1620713905506,259336,,0,0
1620713905506,259356,,0,0
1620713905506,259376,,0,0
1620713905506,259396,,0,0
1620713905506,259416,,0,0
1620713905506,259436,,0,0
1620713905506,259456,,0,0
1620713905506,259476,,0,0
1620713906005,259496,,0,0
1620713906005,259517,,0,0
1620713906005,259537,,0,0
1620713906005,259557,,0,0
1620713906005,259577,,0,0
1620713906005,259597,,0,0
1620713906005,259617,,0,0
1620713906005,259637,,0,0
1620713906005,259657,,0,0
1620713906005,259677,,0,0
1620713906005,259697,,0,0
1620713906005,259717,,0,0
1620713906005,259738,,0,0
1620713906005,259758,,0,0
1620713906005,259778,,0,0
1620713906005,259798,,0,0
1620713906005,259818,,0,0
1620713906005,259838,,0,0
1620713906005,259858,,0,0
1620713906005,259878,,0,0
1620713906005,259898,,0,0
1620713906005,259918,,0,0
1620713906005,259938,,0,0
1620713906005,259959,,0,0
1620713906005,259979,,0,0
1620713906508,260000,,0,0
1620713906508,260020,,0,0
1620713906508,260040,,0,0
1620713906508,260060,,0,0
1620713906508,260080,,0,0
1620713906508,260100,,0,0
1620713906508,260120,,0,0
1620713906508,260140,,0,0
1620713906508,260160,,0,0
1620713906508,260181,,0,0
1620713906508,260201,,0,0
