localTime,remoteTime,label,bvp,signalOK
1620713772202,72354,,1739,0
1620713772202,72374,,1859,0
1620713772202,72394,,1840,0
1620713772202,72414,,1807,0
1620713772202,72434,,1782,0
1620713772202,72454,,1757,0
1620713772202,72474,,1847,0
1620713772202,72494,,1828,0
1620713772202,72514,,1781,0
1620713772202,72534,,1747,0
1620713772202,72554,,1714,0
1620713772202,72574,,1809,0
1620713772202,72595,,1833,0
1620713772202,72615,,1790,0
1620713772202,72635,,1772,0
1620713772202,72655,,1761,0
1620713772202,72675,,1771,0
1620713772202,72695,,1761,0
1620713772202,72715,,1758,0
1620713772202,72735,,1771,0
1620713772202,72755,,1775,0
1620713772202,72775,,1899,0
1620713772202,72795,,1987,0
1620713772202,72816,,1983,0
1620713772202,72836,,1968,0
1620713772662,72856,,1986,0
1620713772662,72876,,2074,0
1620713772662,72896,,2080,0
1620713772662,72916,,2033,0
1620713772662,72936,,1972,0
1620713772662,72956,,1877,0
1620713772662,72976,,1793,0
1620713772662,72996,,1712,0
1620713772662,73016,,1681,0
1620713772662,73037,,1696,0
1620713772662,73057,,1717,0
1620713772662,73077,,1793,0
1620713772662,73097,,1908,0
1620713772662,73117,,1889,0
1620713772662,73137,,1862,0
1620713772662,73157,,1824,0
1620713772662,73177,,1827,0
1620713772662,73197,,1893,0
1620713772662,73217,,1827,0
1620713772662,73237,,1775,0
1620713772662,73258,,1741,0
1620713772662,73278,,1747,0
1620713772662,73298,,1741,0
1620713772662,73318,,1744,0
1620713772662,73338,,1749,0
1620713773170,73358,,1789,0
1620713773170,73378,,1885,0
1620713773170,73398,,1910,0
1620713773170,73418,,1891,0
1620713773170,73438,,1792,0
1620713773170,73458,,1735,0
1620713773170,73479,,1699,0
1620713773170,73499,,1766,0
1620713773170,73519,,1807,0
1620713773170,73539,,1823,0
1620713773170,73559,,1839,0
1620713773170,73579,,1861,0
1620713773170,73599,,1793,0
1620713773170,73619,,1754,0
1620713773170,73639,,1770,0
1620713773170,73659,,1809,0
1620713773170,73679,,1831,0
1620713773170,73700,,1955,0
1620713773170,73720,,1994,0
1620713773170,73740,,1950,0
1620713773170,73760,,1905,0
1620713773170,73780,,1849,0
1620713773170,73800,,1908,0
1620713773170,73820,,1916,0
1620713773170,73840,,1845,0
1620713773666,73860,,1824,0
1620713773666,73880,,1865,0
1620713773666,73900,,1881,0
1620713773666,73921,,1874,0
1620713773666,73941,,1795,0
1620713773666,73961,,1744,0
1620713773666,73981,,1695,0
1620713773666,74001,,1745,0
1620713773666,74021,,1759,0
1620713773666,74041,,1778,0
1620713773666,74061,,1791,0
1620713773666,74081,,1781,0
1620713773666,74101,,1819,0
1620713773666,74121,,1888,0
1620713773666,74142,,1837,0
1620713773666,74162,,1776,0
1620713773666,74182,,1731,0
1620713773666,74202,,1744,0
1620713773666,74222,,1826,0
1620713773666,74242,,1792,0
1620713773666,74262,,1767,0
1620713773666,74282,,1753,0
1620713773666,74302,,1776,0
1620713773666,74322,,1773,0
1620713773666,74342,,1763,0
1620713774172,74362,,1773,0
1620713774172,74382,,1867,0
1620713774172,74402,,1889,0
1620713774172,74422,,1919,0
1620713774172,74442,,1838,0
1620713774172,74462,,1790,0
1620713774172,74482,,1797,0
1620713774172,74502,,1808,0
1620713774172,74522,,1936,0
1620713774172,74542,,1948,0
1620713774172,74562,,1919,0
1620713774172,74583,,1891,0
1620713774172,74603,,1850,0
1620713774172,74623,,1904,0
1620713774172,74643,,1905,0
1620713774172,74663,,1823,0
1620713774172,74683,,1770,0
1620713774172,74703,,1725,0
1620713774172,74723,,1792,0
1620713774172,74743,,1791,0
1620713774172,74763,,1792,0
1620713774172,74783,,1804,0
1620713774172,74804,,1781,0
1620713774172,74824,,1847,0
1620713774172,74844,,1834,0
1620713774666,74864,,1839,0
1620713774666,74884,,1938,0
1620713774666,74904,,1936,0
1620713774666,74924,,1921,0
1620713774666,74944,,1817,0
1620713774666,74964,,1744,0
1620713774666,74984,,1710,0
1620713774666,75004,,1683,0
1620713774666,75025,,1749,0
1620713774666,75045,,1770,0
1620713774666,75065,,1774,0
1620713774666,75085,,1775,0
1620713774666,75105,,1772,0
1620713774666,75125,,1815,0
1620713774666,75145,,1819,0
1620713774666,75165,,1828,0
1620713774666,75185,,1856,0
1620713774666,75205,,1884,0
1620713774666,75225,,1936,0
1620713774666,75246,,2035,0
1620713774666,75266,,1982,0
1620713774666,75286,,1927,0
1620713774666,75306,,1895,0
1620713774666,75326,,1883,0
1620713774666,75346,,1860,0
1620713775178,75366,,1851,0
1620713775178,75386,,1904,0
1620713775178,75406,,1963,0
1620713775178,75426,,1943,0
1620713775178,75446,,1859,0
1620713775178,75467,,1797,0
1620713775178,75487,,1776,0
1620713775178,75507,,1771,0
1620713775178,75527,,1766,0
1620713775178,75547,,1849,0
1620713775178,75567,,1898,0
1620713775178,75587,,1914,0
1620713775178,75607,,1906,0
1620713775178,75627,,1909,0
1620713775178,75647,,1815,0
1620713775178,75667,,1735,0
1620713775178,75688,,1682,0
1620713775178,75708,,1679,0
1620713775178,75728,,1702,0
1620713775178,75748,,1738,0
1620713775178,75768,,1757,0
1620713775178,75788,,1781,0
1620713775178,75808,,1797,0
1620713775178,75828,,1803,0
1620713775178,75848,,1837,0
1620713775710,75869,,1836,0
1620713775710,75889,,1959,0
1620713775710,75910,,1954,0
1620713775710,75930,,1935,0
1620713775710,75950,,1859,0
1620713775710,75970,,1808,0
1620713775710,75990,,1821,0
1620713775710,76010,,1851,0
1620713775710,76030,,1849,0
1620713775710,76050,,1914,0
1620713775710,76070,,1916,0
1620713775710,76090,,1904,0
1620713775710,76110,,1891,0
1620713775710,76131,,1855,0
1620713775710,76151,,1883,0
1620713775710,76171,,1847,0
1620713775710,76191,,1826,0
1620713775710,76211,,1813,0
1620713775710,76231,,1805,0
1620713775710,76251,,1855,0
1620713775710,76271,,1840,0
1620713775710,76291,,1818,0
1620713775710,76311,,1811,0
1620713775710,76331,,1810,0
1620713775710,76352,,1818,0
1620713776187,76372,,1819,0
1620713776187,76392,,1807,0
1620713776187,76412,,1963,0
1620713776187,76432,,1932,0
1620713776187,76452,,1904,0
1620713776187,76472,,1792,0
1620713776187,76492,,1693,0
1620713776187,76512,,1653,0
1620713776187,76532,,1648,0
1620713776187,76552,,1682,0
1620713776187,76573,,1725,0
1620713776187,76593,,1757,0
1620713776187,76613,,1778,0
1620713776187,76633,,1795,0
1620713776187,76653,,1820,0
1620713776187,76673,,1819,0
1620713776187,76693,,1802,0
1620713776187,76713,,1791,0
1620713776187,76733,,1798,0
1620713776187,76753,,1765,0
1620713776187,76773,,1916,0
1620713776187,76794,,2019,0
1620713776187,76814,,2056,0
1620713776187,76834,,2059,0
1620713776187,76854,,1948,0
1620713776677,76875,,1829,0
1620713776677,76895,,1968,0
1620713776677,76915,,1934,0
1620713776677,76935,,1916,0
1620713776677,76955,,1808,0
1620713776677,76975,,1744,0
1620713776677,76995,,1686,0
1620713776677,77016,,1680,0
1620713776677,77036,,1697,0
1620713776677,77056,,1707,0
1620713776677,77076,,1801,0
1620713776677,77096,,1819,0
1620713776677,77116,,1831,0
1620713776677,77136,,1836,0
1620713776677,77156,,1813,0
1620713776677,77176,,1846,0
1620713776677,77196,,1831,0
1620713776677,77216,,1815,0
1620713776677,77237,,1805,0
1620713776677,77257,,1760,0
1620713776677,77277,,1793,0
1620713776677,77297,,1779,0
1620713776677,77317,,1774,0
1620713776677,77337,,1773,0
1620713776677,77357,,1769,0
1620713777178,77377,,1734,0
1620713777178,77397,,1968,0
1620713777178,77417,,1981,0
1620713777178,77437,,1941,0
1620713777178,77458,,1867,0
1620713777178,77478,,1818,0
1620713777178,77498,,1780,0
1620713777178,77518,,1802,0
1620713777178,77538,,1837,0
1620713777178,77558,,1871,0
1620713777178,77578,,1915,0
1620713777178,77598,,1925,0
1620713777178,77618,,1917,0
1620713777178,77638,,1901,0
1620713777178,77658,,1869,0
1620713777178,77679,,1870,0
1620713777178,77699,,1854,0
1620713777178,77719,,1842,0
1620713777178,77739,,1840,0
1620713777178,77759,,1837,0
1620713777178,77779,,1844,0
1620713777178,77799,,1842,0
1620713777178,77819,,1836,0
1620713777178,77839,,1826,0
1620713777178,77859,,1819,0
1620713777695,77879,,1823,0
1620713777695,77900,,1892,0
1620713777695,77920,,1937,0
1620713777695,77940,,1870,0
1620713777695,77960,,1801,0
1620713777695,77980,,1744,0
1620713777695,78000,,1763,0
1620713777695,78020,,1744,0
1620713777695,78040,,1744,0
1620713777695,78060,,1747,0
1620713777695,78080,,1751,0
1620713777695,78100,,1791,0
1620713777695,78121,,1791,0
1620713777695,78141,,1783,0
1620713777695,78161,,1787,0
1620713777695,78181,,1777,0
1620713777695,78201,,1822,0
1620713777695,78221,,1842,0
1620713777695,78241,,1879,0
1620713777695,78261,,1914,0
1620713777695,78281,,1920,0
1620713777695,78302,,1982,0
1620713777695,78322,,1968,0
1620713777695,78343,,1947,0
1620713777695,78363,,1919,0
1620713778184,78383,,1858,0
1620713778184,78403,,2039,0
1620713778184,78423,,2018,0
1620713778184,78443,,1983,0
1620713778184,78463,,1842,0
1620713778184,78483,,1743,0
1620713778184,78503,,1731,0
1620713778184,78523,,1717,0
1620713778184,78543,,1741,0
1620713778184,78564,,1776,0
1620713778184,78584,,1787,0
1620713778184,78604,,1829,0
1620713778184,78624,,1825,0
1620713778184,78644,,1819,0
1620713778184,78664,,1812,0
1620713778184,78684,,1810,0
1620713778184,78704,,1827,0
1620713778184,78724,,1819,0
1620713778184,78744,,1802,0
1620713778184,78764,,1792,0
1620713778184,78785,,1787,0
1620713778184,78805,,1800,0
1620713778184,78825,,1799,0
1620713778184,78845,,1799,0
1620713778184,78865,,1793,0
1620713778688,78885,,1808,0
1620713778688,78905,,1871,0
1620713778688,78925,,1921,0
1620713778688,78945,,1869,0
1620713778688,78965,,1780,0
1620713778688,78985,,1735,0
1620713778688,79006,,1738,0
1620713778688,79026,,1787,0
1620713778688,79046,,1837,0
1620713778688,79066,,1897,0
1620713778688,79086,,1933,0
1620713778688,79106,,1951,0
1620713778688,79126,,1961,0
1620713778688,79146,,1931,0
1620713778688,79166,,1896,0
1620713778688,79186,,1865,0
1620713778688,79206,,1823,0
1620713778688,79227,,1840,0
1620713778688,79247,,1817,0
1620713778688,79267,,1814,0
1620713778688,79287,,1809,0
1620713778688,79307,,1791,0
1620713778688,79327,,1842,0
1620713778688,79347,,1837,0
1620713778688,79367,,1829,0
1620713779189,79387,,1840,0
1620713779189,79407,,1914,0
1620713779189,79427,,1927,0
1620713779189,79448,,1882,0
1620713779189,79468,,1776,0
1620713779189,79488,,1718,0
1620713779189,79508,,1683,0
1620713779189,79528,,1721,0
1620713779189,79548,,1723,0
1620713779189,79568,,1728,0
1620713779189,79588,,1744,0
1620713779189,79608,,1747,0
1620713779189,79628,,1797,0
1620713779189,79648,,1808,0
1620713779189,79669,,1808,0
1620713779189,79689,,1799,0
1620713779189,79709,,1793,0
1620713779189,79729,,1822,0
1620713779189,79749,,1828,0
1620713779189,79769,,1809,0
1620713779189,79789,,1790,0
1620713779189,79809,,1797,0
1620713779189,79829,,1847,0
1620713779189,79849,,1893,0
1620713779189,79869,,1918,0
1620713779690,79889,,1934,0
1620713779690,79909,,2000,0
1620713779690,79929,,2032,0
1620713779690,79949,,1957,0
1620713779690,79969,,1861,0
1620713779690,79989,,1799,0
1620713779690,80009,,1760,0
1620713779690,80029,,1746,0
1620713779690,80049,,1760,0
1620713779690,80069,,1771,0
1620713779690,80089,,1787,0
1620713779690,80110,,1808,0
1620713779690,80130,,1829,0
1620713779690,80150,,1867,0
1620713779690,80170,,1853,0
1620713779690,80190,,1839,0
1620713779690,80210,,1823,0
1620713779690,80230,,1795,0
1620713779690,80250,,1815,0
1620713779690,80270,,1798,0
1620713779690,80290,,1791,0
1620713779690,80310,,1789,0
1620713779690,80331,,1773,0
1620713779690,80351,,1814,0
1620713779690,80371,,1813,0
1620713780192,80391,,1814,0
1620713780192,80411,,1877,0
1620713780192,80431,,1905,0
1620713780192,80451,,1893,0
1620713780192,80471,,1809,0
1620713780192,80491,,1764,0
1620713780192,80511,,1772,0
1620713780192,80531,,1797,0
1620713780192,80552,,1895,0
1620713780192,80572,,1936,0
1620713780192,80592,,1956,0
1620713780192,80612,,1950,0
1620713780192,80632,,1923,0
1620713780192,80652,,1938,0
1620713780192,80672,,1906,0
1620713780192,80692,,1875,0
1620713780192,80712,,1849,0
1620713780192,80732,,1823,0
1620713780192,80752,,1829,0
1620713780192,80773,,1818,0
1620713780192,80793,,1813,0
1620713780192,80813,,1829,0
1620713780192,80833,,1835,0
1620713780192,80853,,1851,0
1620713780192,80873,,1835,0
1620713780696,80894,,1827,0
1620713780696,80914,,1875,0
1620713780696,80934,,1920,0
1620713780696,80954,,1870,0
1620713780696,80974,,1798,0
1620713780696,80995,,1744,0
1620713780696,81015,,1713,0
1620713780696,81035,,1712,0
1620713780696,81055,,1741,0
1620713780696,81075,,1769,0
1620713780696,81095,,1782,0
1620713780696,81115,,1794,0
1620713780696,81135,,1809,0
1620713780696,81155,,1825,0
1620713780696,81175,,1839,0
1620713780696,81195,,1825,0
1620713780696,81216,,1809,0
1620713780696,81236,,1798,0
1620713780696,81256,,1779,0
1620713780696,81276,,1861,0
1620713780696,81296,,1876,0
1620713780696,81316,,1900,0
1620713780696,81336,,1935,0
1620713780696,81356,,1936,0
1620713780696,81376,,1998,0
1620713781198,81397,,1979,0
1620713781198,81417,,2016,0
1620713781198,81438,,2031,0
1620713781198,81458,,1911,0
1620713781198,81478,,1855,0
1620713781198,81498,,1781,0
1620713781198,81518,,1755,0
1620713781198,81538,,1749,0
1620713781198,81558,,1739,0
1620713781198,81578,,1799,0
1620713781198,81598,,1810,1
1620713781198,81618,,1826,1
1620713781198,81638,,1831,1
1620713781198,81659,,1817,1
1620713781198,81679,,1861,1
1620713781198,81699,,1863,1
1620713781198,81719,,1841,1
1620713781198,81739,,1822,1
1620713781198,81759,,1795,1
1620713781198,81779,,1813,1
1620713781198,81799,,1805,1
1620713781198,81819,,1783,1
1620713781198,81839,,1773,1
1620713781198,81859,,1770,1
1620713781198,81879,,1796,1
1620713781700,81899,,1805,1
1620713781700,81919,,1865,1
1620713781700,81939,,1917,1
1620713781700,81959,,1850,1
1620713781700,81979,,1795,1
1620713781700,81999,,1737,1
1620713781700,82019,,1707,1
1620713781700,82039,,1709,1
1620713781700,82059,,1717,1
1620713781700,82079,,1762,1
1620713781700,82100,,1804,1
1620713781700,82120,,1841,1
1620713781700,82140,,1883,1
1620713781700,82160,,1930,1
1620713781700,82180,,1968,1
1620713781700,82200,,1986,1
1620713781700,82220,,1962,1
1620713781700,82240,,1919,1
1620713781700,82260,,1876,1
1620713781700,82280,,1853,1
1620713781700,82300,,1854,1
1620713781700,82321,,1827,1
1620713781700,82341,,1808,1
1620713781700,82361,,1802,1
1620713781700,82381,,1791,1
1620713782202,82401,,1835,1
1620713782202,82421,,1903,1
1620713782202,82441,,1967,1
1620713782202,82461,,1908,1
1620713782202,82481,,1815,1
1620713782202,82501,,1805,1
1620713782202,82521,,1770,1
1620713782202,82542,,1753,1
1620713782202,82562,,1757,1
1620713782202,82582,,1744,1
1620713782202,82602,,1786,1
1620713782202,82622,,1791,1
1620713782202,82642,,1794,1
1620713782202,82662,,1791,1
1620713782202,82682,,1781,1
1620713782202,82702,,1825,1
1620713782202,82722,,1821,1
1620713782202,82742,,1808,1
1620713782202,82763,,1797,1
1620713782202,82783,,1779,1
1620713782202,82803,,1809,1
1620713782202,82823,,1810,1
1620713782202,82843,,1826,1
1620713782202,82863,,1859,1
1620713782202,82883,,1907,1
1620713782704,82903,,1950,1
1620713782704,82923,,2032,1
1620713782704,82943,,2096,1
1620713782704,82963,,2018,1
1620713782704,82984,,1929,1
1620713782704,83004,,1867,1
1620713782704,83024,,1810,1
1620713782704,83044,,1770,1
1620713782704,83064,,1757,1
1620713782704,83084,,1761,1
1620713782704,83104,,1794,1
1620713782704,83124,,1826,1
1620713782704,83144,,1838,1
1620713782704,83164,,1842,1
1620713782704,83184,,1846,1
1620713782704,83205,,1866,1
1620713782704,83225,,1869,1
1620713782704,83245,,1851,1
1620713782704,83265,,1837,1
1620713782704,83285,,1823,1
1620713782704,83305,,1821,1
1620713782704,83325,,1831,1
1620713782704,83345,,1819,1
1620713782704,83365,,1808,1
1620713782704,83385,,1802,1
1620713783206,83405,,1801,1
1620713783206,83426,,1872,1
1620713783206,83446,,1933,1
1620713783206,83466,,1874,1
1620713783206,83486,,1813,1
1620713783206,83506,,1758,1
1620713783206,83526,,1764,1
1620713783206,83546,,1746,1
1620713783206,83566,,1751,1
1620713783206,83586,,1785,1
1620713783206,83606,,1808,1
1620713783206,83626,,1906,1
1620713783206,83647,,1939,1
1620713783206,83667,,1963,1
1620713783206,83687,,1968,1
1620713783206,83707,,1936,1
1620713783206,83727,,1964,1
1620713783206,83747,,1995,1
1620713783206,83767,,1987,1
1620713783206,83787,,1956,1
1620713783206,83807,,1915,1
1620713783206,83827,,1872,1
1620713783206,83847,,1772,1
1620713783206,83868,,1715,1
1620713783206,83888,,1711,1
1620713783708,83908,,1735,1
1620713783708,83928,,1847,1
1620713783708,83948,,1936,1
1620713783708,83968,,1900,1
1620713783708,83988,,1843,1
1620713783708,84008,,1803,1
1620713783708,84028,,1800,1
1620713783708,84048,,1794,1
1620713783708,84068,,1787,1
1620713783708,84089,,1781,1
1620713783708,84109,,1785,1
1620713783708,84129,,1816,1
1620713783708,84149,,1815,1
1620713783708,84169,,1801,1
1620713783708,84189,,1791,1
1620713783708,84209,,1783,1
1620713783708,84229,,1799,1
1620713783708,84249,,1808,1
1620713783708,84269,,1803,1
1620713783708,84289,,1792,1
1620713783708,84310,,1789,1
1620713783708,84330,,1795,1
1620713783708,84350,,1817,1
1620713783708,84370,,1812,1
1620713783708,84390,,1823,1
1620713784209,84410,,1857,1
1620713784209,84430,,1961,1
1620713784209,84450,,2058,1
1620713784209,84470,,2002,1
1620713784209,84490,,1936,1
1620713784209,84510,,1885,1
1620713784209,84531,,1833,1
1620713784209,84551,,1840,1
1620713784209,84571,,1820,1
1620713784209,84591,,1812,1
1620713784209,84611,,1810,1
1620713784209,84631,,1793,1
1620713784209,84651,,1830,1
1620713784209,84671,,1839,1
1620713784209,84691,,1833,1
1620713784209,84711,,1838,1
1620713784209,84731,,1815,1
1620713784209,84751,,1877,1
1620713784209,84771,,1863,1
1620713784209,84791,,1842,1
1620713784209,84811,,1822,1
1620713784209,84831,,1803,1
1620713784209,84851,,1814,1
1620713784209,84871,,1801,1
1620713784209,84891,,1789,1
1620713784713,84911,,1789,1
1620713784713,84931,,1850,1
1620713784713,84951,,1909,1
1620713784713,84972,,1856,1
1620713784713,84992,,1789,1
1620713784713,85012,,1749,1
1620713784713,85032,,1739,1
1620713784713,85052,,1762,1
1620713784713,85072,,1765,1
1620713784713,85092,,1776,1
1620713784713,85112,,1782,1
1620713784713,85132,,1787,1
1620713784713,85152,,1807,1
1620713784713,85172,,1808,1
1620713784713,85193,,1808,1
1620713784713,85213,,1829,1
1620713784713,85233,,1863,1
1620713784713,85253,,1903,1
1620713784713,85273,,1998,1
1620713784713,85293,,2057,1
1620713784713,85313,,2059,1
1620713784713,85333,,2023,1
1620713784713,85353,,1999,1
1620713784713,85373,,1882,1
1620713784713,85393,,1776,1
1620713785213,85413,,1728,1
1620713785213,85433,,1787,1
1620713785213,85453,,1834,1
1620713785213,85473,,1835,1
1620713785213,85493,,1787,1
1620713785213,85513,,1774,1
1620713785213,85533,,1780,1
1620713785213,85553,,1782,1
1620713785213,85573,,1837,1
1620713785213,85593,,1827,1
1620713785213,85613,,1821,1
1620713785213,85634,,1821,1
1620713785213,85654,,1785,1
1620713785213,85674,,1815,1
1620713785213,85694,,1806,1
1620713785213,85714,,1791,1
1620713785213,85734,,1783,1
1620713785213,85754,,1773,1
1620713785213,85774,,1815,1
1620713785213,85794,,1803,1
1620713785213,85814,,1791,1
1620713785213,85834,,1787,1
1620713785213,85855,,1776,1
1620713785213,85875,,1818,1
1620713785213,85895,,1823,1
1620713785716,85915,,1840,1
1620713785716,85935,,1925,1
1620713785716,85955,,2013,1
1620713785716,85975,,2017,1
1620713785716,85995,,1967,1
1620713785716,86015,,1915,1
1620713785716,86035,,1879,1
1620713785716,86055,,1856,1
1620713785716,86076,,1856,1
1620713785716,86096,,1840,1
1620713785716,86116,,1828,1
1620713785716,86136,,1818,1
1620713785716,86156,,1814,1
1620713785716,86176,,1830,1
1620713785716,86196,,1834,1
1620713785716,86216,,1825,1
1620713785716,86236,,1828,1
1620713785716,86256,,1838,1
1620713785716,86276,,1849,1
1620713785716,86297,,1858,1
1620713785716,86317,,1851,1
1620713785716,86337,,1844,1
1620713785716,86357,,1830,1
1620713785716,86377,,1827,1
1620713785716,86397,,1830,1
1620713786220,86418,,1825,1
1620713786220,86438,,1873,1
1620713786220,86458,,1931,1
1620713786220,86478,,1871,1
1620713786220,86498,,1817,1
1620713786220,86519,,1771,1
1620713786220,86539,,1740,1
1620713786220,86559,,1733,1
1620713786220,86579,,1721,1
1620713786220,86599,,1776,1
1620713786220,86619,,1798,1
1620713786220,86639,,1817,1
1620713786220,86659,,1856,1
1620713786220,86679,,1874,1
1620713786220,86699,,1971,1
1620713786220,86719,,2000,1
1620713786220,86740,,2000,1
1620713786220,86760,,1982,1
1620713786220,86780,,1939,1
1620713786220,86800,,1965,1
1620713786220,86820,,1930,1
1620713786220,86840,,1897,1
1620713786220,86860,,1866,1
1620713786220,86880,,1828,1
1620713786220,86900,,1840,1
1620713786723,86921,,1815,1
1620713786723,86941,,1885,1
1620713786723,86962,,1941,1
1620713786723,86982,,1889,1
1620713786723,87002,,1859,1
1620713786723,87022,,1809,1
1620713786723,87042,,1785,1
1620713786723,87062,,1778,1
1620713786723,87082,,1786,1
1620713786723,87102,,1819,1
1620713786723,87122,,1825,1
1620713786723,87142,,1826,1
1620713786723,87162,,1827,1
1620713786723,87183,,1826,1
1620713786723,87203,,1839,1
1620713786723,87223,,1835,1
1620713786723,87243,,1826,1
1620713786723,87263,,1809,1
1620713786723,87283,,1791,1
1620713786723,87303,,1797,1
1620713786723,87323,,1786,1
1620713786723,87343,,1760,1
1620713786723,87363,,1744,1
1620713786723,87383,,1749,1
1620713786723,87404,,1777,1
1620713787230,87424,,1810,1
1620713787230,87444,,1903,1
1620713787230,87464,,1989,1
1620713787230,87484,,1975,1
1620713787230,87504,,1967,1
1620713787230,87524,,1968,1
1620713787230,87544,,1951,1
1620713787230,87564,,1936,1
1620713787230,87584,,1926,1
1620713787230,87604,,1906,1
1620713787230,87625,,1895,1
1620713787230,87645,,1867,1
1620713787230,87665,,1845,1
1620713787230,87685,,1826,1
1620713787230,87705,,1805,1
1620713787230,87725,,1850,1
1620713787230,87745,,1840,1
1620713787230,87765,,1840,1
1620713787230,87785,,1840,1
1620713787230,87805,,1817,1
1620713787230,87825,,1861,1
1620713787230,87846,,1851,1
1620713787230,87866,,1840,1
1620713787230,87886,,1825,1
1620713787230,87906,,1790,1
1620713787726,87926,,1827,1
1620713787726,87946,,1883,1
1620713787726,87966,,1931,1
1620713787726,87986,,1878,1
1620713787726,88006,,1793,1
1620713787726,88026,,1770,1
1620713787726,88046,,1739,1
1620713787726,88067,,1735,1
1620713787726,88087,,1742,1
1620713787726,88107,,1742,1
1620713787726,88127,,1776,1
1620713787726,88147,,1776,1
1620713787726,88167,,1781,1
1620713787726,88187,,1783,1
1620713787726,88207,,1786,1
1620713787726,88227,,1808,1
1620713787726,88247,,1803,1
1620713787726,88267,,1790,1
1620713787726,88288,,1797,1
1620713787726,88308,,1829,1
1620713787726,88328,,1894,1
1620713787726,88348,,1948,1
1620713787726,88368,,1968,1
1620713787726,88388,,1981,1
1620713787726,88408,,1968,1
1620713788239,88428,,1949,1
1620713788239,88448,,1973,1
1620713788239,88468,,1989,1
1620713788239,88488,,1890,1
1620713788239,88509,,1792,1
1620713788239,88529,,1743,1
1620713788239,88549,,1740,1
1620713788239,88569,,1744,1
1620713788239,88589,,1774,1
1620713788239,88609,,1798,1
1620713788239,88629,,1810,1
1620713788239,88649,,1841,1
1620713788239,88669,,1841,1
1620713788239,88689,,1839,1
1620713788239,88709,,1831,1
1620713788239,88730,,1819,1
1620713788239,88750,,1829,1
1620713788239,88770,,1815,1
1620713788239,88790,,1808,1
1620713788239,88810,,1808,1
1620713788239,88830,,1781,1
1620713788239,88850,,1825,1
1620713788239,88870,,1812,1
1620713788239,88890,,1809,1
1620713788239,88910,,1808,1
1620713788732,88931,,1810,1
1620713788732,88951,,1872,1
1620713788732,88971,,1933,0
1620713788732,88991,,1875,0
1620713788732,89011,,1837,0
1620713788732,89031,,1823,0
1620713788732,89051,,1889,0
1620713788732,89071,,1914,0
1620713788732,89091,,1937,0
1620713788732,89111,,1952,0
1620713788732,89131,,1949,0
1620713788732,89151,,1949,0
1620713788732,89172,,1909,0
1620713788732,89192,,1870,0
1620713788732,89212,,1838,0
1620713788732,89232,,1811,0
1620713788732,89252,,1825,0
1620713788732,89272,,1820,0
1620713788732,89292,,1810,0
1620713788732,89312,,1808,0
1620713788732,89332,,1821,0
1620713788732,89352,,1850,0
1620713788732,89372,,1858,0
1620713788732,89393,,1851,0
1620713788732,89413,,1847,0
1620713789236,89433,,1840,0
1620713789236,89453,,1902,0
1620713789236,89473,,1946,0
1620713789236,89493,,1873,0
1620713789236,89513,,1808,0
1620713789236,89533,,1762,0
1620713789236,89553,,1759,0
1620713789236,89573,,1767,0
1620713789236,89593,,1766,0
1620713789236,89614,,1776,0
1620713789236,89634,,1789,0
1620713789236,89654,,1814,0
1620713789236,89674,,1824,0
1620713789236,89694,,1808,0
1620713789236,89714,,1808,0
1620713789236,89734,,1826,0
1620713789236,89754,,1840,0
1620713789236,89774,,1947,0
1620713789236,89794,,1989,0
1620713789236,89814,,2021,0
1620713789236,89835,,2014,0
1620713789236,89855,,1975,0
1620713789236,89875,,1970,0
1620713789236,89895,,1929,0
1620713789236,89915,,1887,0
1620713789734,89935,,1872,0
1620713789734,89955,,1914,0
1620713789734,89975,,1950,0
1620713789734,89995,,1883,0
1620713789734,90015,,1815,0
1620713789734,90035,,1783,0
1620713789734,90056,,1757,0
1620713789734,90076,,1808,0
1620713789734,90096,,1811,0
1620713789734,90116,,1815,0
1620713789734,90136,,1815,0
1620713789734,90156,,1808,0
1620713789734,90176,,1845,0
1620713789734,90196,,1835,0
1620713789734,90216,,1821,0
1620713789734,90236,,1811,0
1620713789734,90256,,1809,0
1620713789734,90276,,1829,0
1620713789734,90296,,1825,0
1620713789734,90316,,1815,0
1620713789734,90336,,1809,0
1620713789734,90356,,1807,0
1620713789734,90376,,1823,0
1620713789734,90396,,1808,0
1620713789734,90416,,1786,0
1620713790242,90436,,1787,0
1620713790242,90456,,1844,0
1620713790242,90476,,1903,0
1620713790242,90497,,1843,0
1620713790242,90517,,1782,0
1620713790242,90537,,1755,0
1620713790242,90557,,1776,0
1620713790242,90577,,1840,0
1620713790242,90597,,1907,0
1620713790242,90617,,1949,0
1620713790242,90637,,1966,0
1620713790242,90657,,1968,0
1620713790242,90677,,1959,0
1620713790242,90697,,1937,0
1620713790242,90718,,1889,0
1620713790242,90738,,1843,0
1620713790242,90758,,1812,0
1620713790242,90778,,1772,0
1620713790242,90798,,1811,0
1620713790242,90818,,1797,0
1620713790242,90838,,1793,0
1620713790242,90858,,1802,0
1620713790242,90878,,1788,0
1620713790242,90898,,1843,0
1620713790242,90918,,1846,0
1620713790739,90938,,1847,0
1620713790739,90958,,1904,0
1620713790739,90978,,1923,0
1620713790739,90998,,1902,0
1620713790739,91018,,1807,0
1620713790739,91038,,1746,0
1620713790739,91058,,1724,0
1620713790739,91078,,1712,0
1620713790739,91098,,1751,0
1620713790739,91118,,1765,0
1620713790739,91138,,1776,0
1620713790739,91159,,1788,0
1620713790739,91179,,1798,0
1620713790739,91199,,1821,0
1620713790739,91219,,1815,0
1620713790739,91239,,1808,0
1620713790739,91259,,1801,0
1620713790739,91279,,1798,0
1620713790739,91299,,1817,0
1620713790739,91319,,1818,0
1620713790739,91339,,1837,0
1620713790739,91359,,1863,0
1620713790739,91380,,1909,0
1620713790739,91400,,1965,0
1620713790739,91420,,1975,0
1620713811834,112115,,2875,0
1620713811834,112135,,2995,0
1620713811834,112156,,3247,0
1620713811834,112176,,3645,0
1620713811834,112196,,3879,0
1620713811834,112216,,3878,0
1620713811834,112236,,3876,0
1620713811834,112256,,3885,0
1620713811834,112276,,3871,0
1620713811834,112296,,3881,0
1620713811834,112316,,3881,0
1620713811834,112336,,3879,0
1620713811834,112356,,3885,0
1620713811834,112377,,3873,0
1620713811834,112397,,3882,0
1620713811834,112417,,3879,0
1620713811834,112437,,3885,0
1620713811834,112457,,3887,0
1620713811834,112477,,3882,0
1620713811834,112497,,3887,0
1620713811834,112517,,3884,0
1620713812339,112537,,3682,0
1620713812339,112557,,3458,0
1620713812339,112577,,3359,0
1620713812339,112598,,3222,0
1620713812339,112618,,3190,0
1620713812339,112638,,3306,0
1620713812339,112658,,3532,0
1620713812339,112678,,3743,0
1620713812339,112698,,3803,0
1620713812339,112718,,3701,0
1620713812339,112738,,3505,0
1620713812339,112758,,3280,0
1620713812339,112778,,3053,0
1620713812339,112798,,2861,0
1620713812339,112819,,2715,0
1620713812339,112839,,2569,0
1620713812339,112859,,2459,0
1620713812339,112879,,2399,0
1620713812339,112899,,2391,0
1620713812339,112919,,2460,0
1620713812339,112939,,2525,0
1620713812339,112959,,2598,0
1620713812339,112979,,2623,0
1620713812339,112999,,2512,0
1620713812339,113019,,2352,0
1620713812840,113039,,2112,0
1620713812840,113059,,2026,0
1620713812840,113079,,2029,0
1620713812840,113099,,2006,0
1620713812840,113119,,2134,0
1620713812840,113139,,2381,0
1620713812840,113159,,2870,0
1620713812840,113179,,3680,0
1620713812840,113199,,3885,0
1620713812840,113219,,3887,0
1620713812840,113239,,3888,0
1620713812840,113260,,3889,0
1620713812840,113280,,3888,0
1620713812840,113300,,3888,0
1620713812840,113320,,3889,0
1620713812840,113340,,3890,0
1620713812840,113360,,3889,0
1620713812840,113380,,3887,0
1620713812840,113400,,3888,0
1620713812840,113420,,3888,0
1620713812840,113440,,3893,0
1620713812840,113460,,3891,0
1620713812840,113481,,3894,0
1620713812840,113501,,3889,0
1620713812840,113521,,3895,0
1620713813343,113542,,3889,0
1620713813343,113562,,3893,0
1620713813343,113582,,3895,0
1620713813343,113602,,3889,0
1620713813343,113622,,3894,0
1620713813343,113642,,3890,0
1620713813343,113662,,3895,0
1620713813343,113682,,3898,0
1620713813343,113703,,3895,0
1620713813343,113723,,3901,0
1620713813343,113743,,3891,0
1620713813343,113763,,3888,0
1620713813343,113783,,3071,0
1620713813343,113803,,2654,0
1620713813343,113823,,2377,0
1620713813343,113843,,2219,0
1620713813343,113863,,2115,0
1620713813343,113883,,2156,0
1620713813343,113903,,2352,0
1620713813343,113924,,2691,0
1620713813343,113944,,3229,0
1620713813343,113964,,3794,0
1620713813343,113984,,3892,0
1620713813343,114004,,3894,0
1620713813343,114024,,3770,0
1620713813862,114044,,3466,0
1620713813862,114064,,3388,0
1620713813862,114084,,3362,0
1620713813862,114104,,3322,0
1620713813862,114124,,3042,0
1620713813862,114145,,2888,0
1620713813862,114165,,2713,0
1620713813862,114185,,2583,0
1620713813862,114205,,2542,0
1620713813862,114225,,2635,0
1620713813862,114245,,2974,0
1620713813862,114265,,3673,0
1620713813862,114285,,3898,0
1620713813862,114305,,3897,0
1620713813862,114325,,3893,0
1620713813862,114345,,3903,0
1620713813862,114366,,3905,0
1620713813862,114386,,3905,0
1620713813862,114406,,3904,0
1620713813862,114426,,3901,0
1620713813862,114446,,3902,0
1620713813862,114466,,3902,0
1620713813862,114486,,3905,0
1620713813862,114506,,3907,0
1620713813862,114526,,3902,0
1620713814349,114546,,3901,0
1620713814349,114566,,3901,0
1620713814349,114587,,3901,0
1620713814349,114607,,3911,0
1620713814349,114627,,3904,0
1620713814349,114647,,3906,0
1620713814349,114667,,3907,0
1620713814349,114687,,3903,0
1620713814349,114707,,3903,0
1620713814349,114727,,3907,0
1620713814349,114747,,3909,0
1620713814349,114767,,3904,0
1620713814349,114787,,3904,0
1620713814349,114808,,3914,0
1620713814349,114828,,3904,0
1620713814349,114848,,3905,0
1620713814349,114868,,3911,0
1620713814349,114888,,3905,0
1620713814349,114908,,3903,0
1620713814349,114928,,3905,0
1620713814349,114948,,3911,0
1620713814349,114968,,3648,0
1620713814349,114988,,2741,0
1620713814349,115008,,2235,0
1620713814349,115029,,1918,0
1620713814849,115049,,1711,0
1620713814849,115069,,1771,0
1620713814849,115089,,1915,0
1620713814849,115109,,2023,0
1620713814849,115129,,1991,0
1620713814849,115149,,1919,0
1620713814849,115169,,1933,0
1620713814849,115189,,1904,0
1620713814849,115209,,1863,0
1620713814849,115229,,1842,0
1620713814849,115250,,1876,0
1620713814849,115270,,2099,0
1620713814849,115290,,2322,0
1620713814849,115310,,2541,0
1620713814849,115330,,2684,1
1620713814849,115350,,2659,1
1620713814849,115370,,2579,1
1620713814849,115390,,2377,1
1620713814849,115410,,2111,1
1620713814849,115430,,1861,1
1620713814849,115450,,1679,1
1620713814849,115471,,1584,1
1620713814849,115491,,1509,1
1620713814849,115511,,1439,1
1620713814849,115531,,1397,1
1620713815355,115551,,1375,1
1620713815355,115571,,1521,1
1620713815355,115591,,1658,1
1620713815355,115611,,1742,1
1620713815355,115631,,1822,1
1620713815355,115651,,1793,1
1620713815355,115671,,1811,1
1620713815355,115692,,1937,1
1620713815355,115712,,2029,1
1620713815355,115732,,2000,1
1620713815355,115752,,1885,1
1620713815355,115772,,1753,1
1620713815355,115792,,1661,1
1620713815355,115812,,1581,1
1620713815355,115832,,1581,1
1620713815355,115852,,1680,1
1620713815355,115872,,1882,1
1620713815355,115892,,2233,1
1620713815355,115913,,2529,1
1620713815355,115933,,2747,1
1620713815355,115953,,2811,1
1620713815355,115973,,2737,1
1620713815355,115993,,2613,1
1620713815355,116013,,2352,1
1620713815355,116033,,2031,1
1620713815860,116054,,1671,1
1620713815860,116074,,1525,1
1620713815860,116094,,1462,1
1620713815860,116114,,1446,1
1620713815860,116135,,1397,1
1620713815860,116155,,1401,1
1620713815860,116175,,1379,1
1620713815860,116195,,1322,1
1620713815860,116215,,1097,1
1620713815860,116235,,818,1
1620713815860,116255,,530,1
1620713815860,116275,,214,1
1620713815860,116295,,0,1
1620713815860,116315,,0,1
1620713815860,116335,,0,0
1620713815860,116356,,0,0
1620713815860,116376,,0,0
1620713815860,116396,,0,0
1620713815860,116416,,0,0
1620713815860,116436,,0,0
1620713815860,116456,,0,0
1620713815860,116476,,0,0
1620713815860,116496,,0,0
1620713815860,116516,,0,0
1620713815860,116536,,0,0
1620713816359,116556,,0,0
1620713816359,116577,,0,0
1620713816359,116597,,0,0
1620713816359,116617,,0,0
1620713816359,116637,,0,0
1620713816359,116657,,0,0
1620713816359,116677,,0,0
1620713816359,116697,,0,0
1620713816359,116717,,0,0
1620713816359,116737,,0,0
1620713816359,116757,,0,0
1620713816359,116777,,0,0
1620713816359,116797,,0,0
1620713816359,116817,,0,0
1620713816359,116837,,0,0
1620713816359,116857,,0,0
1620713816359,116877,,0,0
1620713816359,116897,,0,0
1620713816359,116917,,0,0
1620713816359,116937,,0,0
1620713816359,116957,,0,0
1620713816359,116977,,0,0
1620713816359,116997,,0,0
1620713816359,117018,,0,0
1620713816359,117038,,0,0
1620713816858,117058,,0,0
1620713816858,117078,,0,0
1620713816858,117098,,0,0
1620713816858,117118,,0,0
1620713816858,117138,,0,0
1620713816858,117158,,0,0
1620713816858,117178,,0,0
1620713816858,117198,,0,0
1620713816858,117218,,0,0
1620713816858,117239,,0,0
1620713816858,117259,,0,0
1620713816858,117279,,0,0
1620713816858,117299,,0,0
1620713816858,117319,,0,0
1620713816858,117339,,0,0
1620713816858,117359,,0,0
1620713816858,117379,,0,0
1620713816858,117399,,0,0
1620713816858,117419,,0,0
1620713816858,117439,,0,0
1620713816858,117460,,0,0
1620713816858,117480,,0,0
1620713816858,117500,,0,0
1620713816858,117520,,0,0
1620713816858,117540,,0,0
1620713817361,117560,,0,0
1620713817361,117580,,0,0
1620713817361,117600,,0,0
1620713817361,117620,,0,0
1620713817361,117640,,0,0
1620713817361,117660,,0,0
1620713817361,117681,,0,0
1620713817361,117701,,0,0
1620713817361,117721,,0,0
1620713817361,117741,,0,0
1620713817361,117761,,0,0
1620713817361,117781,,0,0
1620713817361,117801,,0,0
1620713817361,117821,,0,0
1620713817361,117841,,0,0
1620713817361,117861,,0,0
1620713817361,117881,,0,0
1620713817361,117902,,0,0
1620713817361,117922,,0,0
1620713817361,117942,,0,0
1620713817361,117962,,0,0
1620713817361,117982,,0,0
1620713817361,118002,,958,0
1620713817361,118022,,3726,0
1620713817361,118042,,3881,0
1620713817863,118062,,3885,0
1620713817863,118082,,3879,0
1620713817863,118102,,3888,0
1620713817863,118123,,3888,0
1620713817863,118143,,3883,0
1620713817863,118163,,3888,0
1620713817863,118183,,3887,0
1620713817863,118203,,3886,0
1620713817863,118223,,3887,0
1620713817863,118243,,3882,0
1620713817863,118263,,3882,0
1620713817863,118283,,2826,0
1620713817863,118303,,1641,0
1620713817863,118323,,656,0
1620713817863,118344,,0,0
1620713817863,118364,,0,0
1620713817863,118384,,0,0
1620713817863,118404,,0,0
1620713817863,118424,,0,0
1620713817863,118444,,0,0
1620713817863,118464,,304,0
1620713817863,118484,,557,0
1620713817863,118504,,742,0
1620713817863,118524,,879,0
1620713817863,118544,,1072,0
1620713818368,118564,,1168,0
1620713818368,118584,,1334,0
1620713818368,118604,,1453,0
1620713818368,118624,,1441,0
1620713818368,118644,,1395,0
1620713818368,118664,,1347,0
1620713818368,118684,,1328,0
1620713818368,118704,,1351,0
1620713818368,118724,,1365,0
1620713818368,118744,,1424,0
1620713818368,118764,,1463,0
1620713818368,118785,,1504,0
1620713818368,118805,,1515,0
1620713818368,118825,,1491,0
1620713818368,118845,,1471,0
1620713818368,118865,,1431,0
1620713818368,118885,,1399,0
1620713818368,118905,,1365,0
1620713818368,118925,,1338,0
1620713818368,118945,,1329,0
1620713818368,118965,,1328,0
1620713818368,118985,,1289,0
1620713818368,119006,,1238,0
1620713818368,119026,,1214,0
1620713818368,119046,,1216,0
1620713818873,119066,,1248,0
1620713818873,119086,,1338,0
1620713818873,119106,,1420,0
1620713818873,119126,,1377,0
1620713818873,119146,,1325,0
1620713818873,119166,,1317,0
1620713818873,119186,,1328,0
1620713818873,119206,,1393,0
1620713818873,119227,,1505,0
1620713818873,119247,,1648,0
1620713818873,119267,,1783,0
1620713818873,119287,,1834,0
1620713818873,119307,,1846,0
1620713818873,119327,,1837,0
1620713818873,119347,,1779,0
1620713818873,119367,,1774,0
1620713818873,119387,,1707,0
1620713818873,119407,,1650,0
1620713818873,119427,,1616,0
1620713818873,119448,,1565,0
1620713818873,119468,,1630,0
1620713818873,119488,,1701,0
1620713818873,119508,,1763,0
1620713818873,119528,,1685,0
1620713818873,119548,,1565,0
1620713819370,119568,,1563,0
1620713819370,119588,,1607,0
1620713819370,119608,,1616,0
1620713819370,119628,,1610,0
1620713819370,119648,,1488,0
1620713819370,119669,,1456,0
1620713819370,119689,,1419,0
1620713819370,119709,,1403,0
1620713819370,119729,,1423,0
1620713819370,119749,,1459,0
1620713819370,119769,,1552,0
1620713819370,119789,,1590,0
1620713819370,119809,,1623,0
1620713819370,119829,,1664,0
1620713819370,119849,,1716,0
1620713819370,119869,,1807,0
1620713819370,119890,,1878,0
1620713819370,119910,,1926,0
1620713819370,119930,,1951,0
1620713819370,119950,,1942,0
1620713819370,119970,,1927,0
1620713819370,119990,,1863,0
1620713819370,120010,,1777,0
1620713819370,120030,,1702,0
1620713819370,120050,,1639,0
1620713819876,120071,,1601,0
1620713819876,120091,,1655,0
1620713819876,120112,,1730,0
1620713819876,120132,,1694,0
1620713819876,120152,,1639,0
1620713819876,120172,,1628,0
1620713819876,120192,,1654,0
1620713819876,120212,,1683,0
1620713819876,120232,,1727,0
1620713819876,120252,,1769,0
1620713819876,120272,,1789,0
1620713819876,120292,,1811,0
1620713819876,120312,,1793,0
1620713819876,120333,,1772,0
1620713819876,120353,,1744,0
1620713819876,120373,,1721,0
1620713819876,120393,,1719,0
1620713819876,120413,,1680,0
1620713819876,120433,,1647,0
1620713819876,120453,,1627,0
1620713819876,120473,,1649,0
1620713819876,120493,,1758,0
1620713819876,120513,,1840,0
1620713819876,120533,,1894,0
1620713819876,120554,,1918,0
1620713820374,120574,,1916,0
1620713820374,120594,,1968,0
1620713820374,120614,,1962,0
1620713820374,120634,,1955,0
1620713820374,120654,,1834,0
1620713820374,120674,,1684,0
1620713820374,120694,,1662,0
1620713820374,120714,,1634,0
1620713820374,120734,,1647,0
1620713820374,120754,,1685,0
1620713820374,120775,,1725,0
1620713820374,120795,,1808,0
1620713820374,120815,,1825,0
1620713820374,120835,,1831,0
1620713820374,120855,,1825,0
1620713820374,120875,,1815,0
1620713820374,120895,,1826,0
1620713820374,120915,,1803,0
1620713820374,120935,,1763,0
1620713820374,120955,,1738,0
1620713820374,120975,,1730,0
1620713820374,120996,,1762,0
1620713820374,121016,,1771,0
1620713820374,121036,,1789,0
1620713820374,121056,,1806,0
1620713820878,121077,,1840,0
1620713820878,121097,,1968,0
1620713820878,121117,,2099,0
1620713820878,121137,,2112,0
1620713820878,121157,,2067,0
1620713820878,121177,,2002,0
1620713820878,121197,,1939,0
1620713820878,121218,,1859,0
1620713820878,121238,,1767,0
1620713820878,121258,,1709,0
1620713820878,121278,,1663,0
1620713820878,121298,,1649,0
1620713820878,121318,,1644,0
1620713820878,121338,,1634,0
1620713820878,121358,,1647,0
1620713820878,121378,,1673,0
1620713820878,121398,,1697,0
1620713820878,121418,,1751,0
1620713820878,121439,,1776,0
1620713820878,121459,,1780,0
1620713820878,121479,,1767,0
1620713820878,121499,,1736,0
1620713820878,121519,,1726,0
1620713820878,121539,,1680,1
1620713820878,121559,,1647,1
1620713821381,121579,,1639,1
1620713821381,121599,,1726,1
1620713821381,121619,,1797,1
1620713821381,121639,,1743,1
1620713821381,121660,,1643,1
1620713821381,121680,,1577,1
1620713821381,121700,,1543,1
1620713821381,121720,,1626,1
1620713821381,121740,,1691,1
1620713821381,121760,,1775,1
1620713821381,121780,,1855,1
1620713821381,121800,,1881,1
1620713821381,121820,,1951,1
1620713821381,121840,,1936,1
1620713821381,121860,,1889,1
1620713821381,121881,,1833,1
1620713821381,121901,,1772,1
1620713821381,121921,,1757,1
1620713821381,121941,,1711,1
1620713821381,121961,,1673,1
1620713821381,121981,,1674,1
1620713821381,122001,,1680,1
1620713821381,122021,,1719,1
1620713821381,122041,,1728,1
1620713821381,122061,,1733,1
1620713821883,122082,,1747,1
1620713821883,122103,,1824,1
1620713821883,122123,,1882,1
1620713821883,122143,,1801,1
1620713821883,122163,,1719,1
1620713821883,122183,,1670,1
1620713821883,122203,,1650,1
1620713821883,122223,,1675,1
1620713821883,122243,,1700,1
1620713821883,122263,,1717,1
1620713821883,122283,,1737,1
1620713821883,122303,,1749,1
1620713821883,122324,,1776,1
1620713821883,122344,,1789,1
1620713821883,122364,,1798,1
1620713821883,122384,,1834,1
1620713821883,122404,,1875,1
1620713821883,122424,,1910,1
1620713821883,122444,,1910,1
1620713821883,122464,,1876,1
1620713821883,122484,,1831,1
1620713821883,122504,,1779,1
1620713821883,122524,,1728,1
1620713821883,122545,,1703,0
1620713821883,122565,,1667,0
1620713822385,122585,,1652,0
1620713822385,122605,,1734,0
1620713822385,122625,,1802,0
1620713822385,122645,,1776,0
1620713822385,122665,,1721,0
1620713822385,122685,,1695,0
1620713822385,122705,,1680,0
1620713822385,122725,,1664,0
1620713822385,122745,,1718,0
1620713822385,122766,,1722,0
1620713822385,122786,,1717,0
1620713822385,122806,,1719,0
1620713822385,122826,,1711,0
1620713822385,122846,,1763,0
1620713822385,122866,,1744,0
1620713822385,122886,,1719,0
1620713822385,122906,,1699,0
1620713822385,122926,,1679,0
1620713822385,122946,,1713,0
1620713822385,122966,,1741,0
1620713822385,122987,,1779,0
1620713822385,123007,,1834,0
1620713822385,123027,,1869,0
1620713822385,123047,,1922,0
1620713822385,123067,,1913,0
1620713822886,123087,,1893,0
1620713822886,123107,,1917,0
1620713822886,123127,,1979,0
1620713822886,123147,,1920,0
1620713822886,123167,,1821,0
1620713822886,123187,,1754,0
1620713822886,123208,,1730,0
1620713822886,123228,,1735,0
1620713822886,123248,,1782,0
1620713822886,123268,,1812,0
1620713822886,123288,,1827,0
1620713822886,123308,,1826,0
1620713822886,123328,,1817,0
1620713822886,123348,,1827,0
1620713822886,123368,,1811,0
1620713822886,123388,,1787,0
1620713822886,123408,,1776,0
1620713822886,123429,,1776,0
1620713822886,123449,,1785,0
1620713822886,123469,,1782,0
1620713822886,123489,,1780,0
1620713822886,123509,,1791,0
1620713822886,123529,,1801,0
1620713822886,123549,,1834,0
1620713822886,123569,,1885,0
1620713836953,137615,,1852,1
1620713836953,137635,,1847,1
1620713837455,137656,,1854,1
1620713837455,137676,,1905,1
1620713837455,137696,,1951,1
1620713837455,137716,,1891,1
1620713837455,137736,,1808,1
1620713837455,137756,,1755,1
1620713837455,137776,,1712,1
1620713837455,137796,,1770,1
1620713837455,137816,,1771,1
1620713837455,137836,,1776,1
1620713837455,137856,,1779,1
1620713837455,137876,,1774,1
1620713837455,137896,,1798,1
1620713837455,137916,,1794,1
1620713837455,137936,,1794,1
1620713837455,137956,,1808,1
1620713837455,137976,,1835,1
1620713837455,137996,,1898,1
1620713837455,138017,,1918,1
1620713837455,138037,,1923,1
1620713837455,138057,,1917,1
1620713837455,138077,,1906,1
1620713837455,138097,,1902,1
1620713837455,138117,,1872,1
1620713837455,138137,,1847,1
1620713837957,138157,,1840,1
1620713837957,138177,,1872,1
1620713837957,138197,,1909,1
1620713837957,138217,,1847,1
1620713837957,138238,,1791,1
1620713837957,138258,,1779,1
1620713837957,138278,,1792,1
1620713837957,138298,,1819,1
1620713837957,138318,,1842,1
1620713837957,138338,,1847,1
1620713837957,138358,,1853,1
1620713837957,138378,,1853,1
1620713837957,138398,,1856,1
1620713837957,138418,,1855,1
1620713837957,138438,,1840,1
1620713837957,138459,,1835,1
1620713837957,138479,,1837,1
1620713837957,138499,,1846,1
1620713837957,138519,,1855,1
1620713837957,138539,,1840,1
1620713837957,138559,,1823,1
1620713837957,138579,,1815,1
1620713837957,138599,,1807,1
1620713837957,138619,,1859,1
1620713837957,138639,,1881,1
1620713838462,138660,,1931,0
1620713838462,138681,,2021,0
1620713838462,138701,,2076,0
1620713838462,138721,,2019,0
1620713838462,138741,,1930,0
1620713838462,138761,,1866,0
1620713838462,138781,,1829,0
1620713838462,138801,,1799,0
1620713838462,138821,,1838,0
1620713838462,138841,,1836,0
1620713838462,138861,,1841,0
1620713838462,138881,,1841,0
1620713838462,138902,,1819,0
1620713838462,138922,,1869,0
1620713838462,138942,,1854,0
1620713838462,138962,,1831,0
1620713838462,138982,,1809,0
1620713838462,139002,,1788,0
1620713838462,139022,,1810,0
1620713838462,139042,,1799,0
1620713838462,139062,,1795,0
1620713838462,139082,,1795,0
1620713838462,139102,,1796,0
1620713838462,139123,,1819,0
1620713838462,139143,,1799,0
1620713838966,139164,,1802,0
1620713838966,139184,,1851,0
1620713838966,139204,,1894,0
1620713838966,139224,,1857,0
1620713838966,139244,,1791,0
1620713838966,139264,,1751,0
1620713838966,139284,,1751,0
1620713838966,139304,,1786,0
1620713838966,139324,,1858,0
1620713838966,139345,,1916,0
1620713838966,139365,,1936,0
1620713838966,139385,,1936,0
1620713838966,139405,,1919,0
1620713838966,139425,,1913,0
1620713838966,139445,,1886,0
1620713838966,139465,,1853,0
1620713838966,139485,,1825,0
1620713838966,139505,,1810,0
1620713838966,139525,,1815,0
1620713838966,139545,,1820,0
1620713838966,139566,,1818,0
1620713838966,139586,,1821,0
1620713838966,139606,,1830,0
1620713838966,139626,,1843,0
1620713838966,139646,,1851,0
1620713839466,139666,,1851,1
1620713839466,139686,,1909,1
1620713839466,139706,,1952,1
1620713839466,139726,,1854,1
1620713839466,139747,,1827,1
1620713839466,139767,,1763,1
1620713839466,139788,,1735,1
1620713839466,139808,,1728,1
1620713839466,139828,,1739,1
1620713839466,139848,,1775,1
1620713839466,139868,,1787,1
1620713839466,139888,,1806,1
1620713839466,139908,,1811,1
1620713839466,139928,,1796,1
1620713839466,139948,,1840,1
1620713839466,139968,,1831,1
1620713839466,139988,,1814,1
1620713839466,140009,,1817,1
1620713839466,140029,,1797,1
1620713839466,140049,,1851,1
1620713839466,140069,,1871,1
1620713839466,140089,,1891,1
1620713839466,140109,,1915,1
1620713839466,140129,,1913,1
1620713839466,140149,,1958,1
1620713839971,140169,,1936,1
1620713839971,140189,,1966,1
1620713839971,140209,,1989,1
1620713839971,140230,,1899,1
1620713839971,140250,,1830,1
1620713839971,140270,,1783,1
1620713839971,140290,,1758,1
1620713839971,140310,,1754,1
1620713839971,140330,,1770,1
1620713839971,140350,,1806,1
1620713839971,140370,,1808,1
1620713839971,140390,,1808,1
1620713839971,140410,,1808,1
1620713839971,140430,,1807,1
1620713839971,140451,,1831,1
1620713839971,140471,,1825,1
1620713839971,140491,,1813,1
1620713839971,140511,,1808,1
1620713839971,140531,,1805,1
1620713839971,140551,,1824,1
1620713839971,140571,,1818,1
1620713839971,140591,,1811,1
1620713839971,140611,,1806,1
1620713839971,140631,,1803,1
1620713839971,140651,,1808,1
1620713840472,140671,,1808,0
1620713840472,140691,,1871,0
1620713840472,140711,,1910,0
1620713840472,140731,,1862,0
1620713840472,140751,,1783,0
1620713840472,140771,,1749,0
1620713840472,140791,,1715,0
1620713840472,140811,,1721,0
1620713840472,140831,,1749,0
1620713840472,140851,,1779,0
1620713840472,140871,,1878,0
1620713840472,140892,,1923,0
1620713840472,140912,,1963,0
1620713840472,140932,,1963,0
1620713840472,140952,,1917,0
1620713840472,140972,,1941,0
1620713840472,140992,,1892,0
1620713840472,141012,,1843,0
1620713840472,141032,,1808,0
1620713840472,141052,,1754,0
1620713840472,141072,,1777,0
1620713840472,141092,,1744,0
1620713840472,141113,,1725,0
1620713840472,141133,,1712,0
1620713840472,141153,,1709,0
1620713840974,141173,,1753,0
1620713840974,141193,,1835,0
1620713840974,141213,,1904,0
1620713840974,141233,,1863,0
1620713840974,141253,,1818,0
1620713840974,141273,,1807,0
1620713840974,141293,,1779,0
1620713840974,141313,,1776,0
1620713840974,141334,,1787,0
1620713840974,141354,,1802,0
1620713840974,141374,,1840,0
1620713840974,141394,,1854,0
1620713840974,141414,,1854,0
1620713840974,141434,,1852,0
1620713840974,141454,,1849,0
1620713840974,141474,,1858,0
1620713840974,141494,,1850,0
1620713840974,141514,,1845,0
1620713840974,141534,,1853,0
1620713840974,141555,,1883,0
1620713840974,141575,,1936,0
1620713840974,141595,,1955,0
1620713840974,141615,,1959,0
1620713840974,141635,,1952,0
1620713840974,141655,,1933,0
1620713841477,141675,,1916,0
1620713841477,141695,,1952,0
1620713841477,141715,,1975,0
1620713841477,141735,,1904,0
1620713841477,141755,,1821,0
1620713841477,141776,,1786,0
1620713841477,141796,,1776,0
1620713841477,141816,,1767,0
1620713841477,141836,,1781,0
1620713841477,141856,,1803,0
1620713841477,141876,,1819,0
1620713841477,141896,,1856,1
1620713841477,141916,,1858,1
1620713841477,141936,,1856,1
1620713841477,141956,,1842,1
1620713841477,141976,,1814,1
1620713841477,141997,,1851,1
1620713841477,142017,,1826,1
1620713841477,142037,,1808,1
1620713841477,142057,,1802,1
1620713841477,142077,,1778,1
1620713841477,142097,,1830,1
1620713841477,142117,,1824,1
1620713841477,142137,,1803,1
1620713841477,142157,,1790,1
1620713841978,142178,,1793,1
1620713841978,142198,,1862,1
1620713841978,142219,,1919,1
1620713841978,142239,,1869,1
1620713841978,142259,,1831,1
1620713841978,142279,,1822,1
1620713841978,142299,,1872,1
1620713841978,142319,,1903,1
1620713841978,142339,,1918,0
1620713841978,142359,,1923,0
1620713841978,142379,,1918,0
1620713841978,142399,,1926,0
1620713841978,142419,,1903,0
1620713841978,142440,,1874,0
1620713841978,142460,,1850,0
1620713841978,142480,,1829,0
1620713841978,142500,,1839,0
1620713841978,142520,,1833,0
1620713841978,142540,,1829,0
1620713841978,142560,,1834,0
1620713841978,142580,,1839,0
1620713841978,142600,,1856,0
1620713841978,142620,,1849,0
1620713841978,142640,,1837,0
1620713841978,142661,,1825,0
1620713842482,142681,,1828,0
1620713842482,142701,,1881,0
1620713842482,142721,,1936,0
1620713842482,142741,,1869,0
1620713842482,142761,,1804,0
1620713842482,142781,,1759,0
1620713842482,142801,,1746,0
1620713842482,142821,,1759,0
1620713842482,142841,,1759,0
1620713842482,142861,,1759,0
1620713842482,142882,,1771,0
1620713842482,142902,,1783,0
1620713842482,142922,,1812,0
1620713842482,142942,,1808,0
1620713842482,142962,,1806,0
1620713842482,142982,,1814,0
1620713842482,143002,,1824,0
1620713842482,143022,,1902,0
1620713842482,143042,,1935,0
1620713842482,143062,,1962,0
1620713842482,143082,,1975,0
1620713842482,143103,,1957,0
1620713842482,143123,,1971,0
1620713842482,143143,,1935,0
1620713842482,143163,,1893,0
1620713842983,143184,,1872,0
1620713842983,143204,,1914,0
1620713842983,143224,,1953,0
1620713842983,143244,,1887,0
1620713842983,143264,,1818,0
1620713842983,143284,,1783,0
1620713842983,143304,,1767,0
1620713842983,143325,,1791,0
1620713842983,143345,,1808,0
1620713842983,143365,,1817,0
1620713842983,143385,,1826,0
1620713842983,143405,,1817,0
1620713842983,143425,,1853,0
1620713842983,143445,,1842,0
1620713842983,143465,,1835,0
1620713842983,143485,,1826,0
1620713842983,143505,,1829,0
1620713842983,143525,,1845,0
1620713842983,143546,,1824,0
1620713842983,143566,,1806,0
1620713842983,143586,,1791,0
1620713842983,143606,,1789,0
1620713842983,143626,,1808,0
1620713842983,143646,,1805,0
1620713842983,143666,,1793,0
1620713843496,143686,,1796,0
1620713843496,143706,,1859,0
1620713843496,143726,,1920,0
1620713843496,143746,,1882,0
1620713843496,143767,,1857,0
1620713843496,143787,,1861,0
1620713843496,143807,,1882,0
1620713843496,143827,,1909,0
1620713843496,143847,,1920,0
1620713843496,143867,,1905,0
1620713843496,143887,,1887,0
1620713843496,143907,,1866,0
1620713843496,143927,,1844,0
1620713843496,143947,,1831,0
1620713843496,143967,,1809,0
1620713843496,143988,,1801,0
1620713843496,144008,,1802,0
1620713843496,144028,,1817,0
1620713843496,144048,,1846,0
1620713843496,144068,,1851,0
1620713843496,144088,,1857,0
1620713843496,144108,,1859,0
1620713843496,144128,,1840,0
1620713843496,144148,,1872,0
1620713843496,144168,,1847,0
1620713843988,144188,,1831,0
1620713843988,144209,,1881,0
1620713843988,144229,,1891,0
1620713843988,144249,,1893,0
1620713843988,144269,,1811,0
1620713843988,144289,,1766,0
1620713843988,144309,,1744,0
1620713843988,144329,,1718,0
1620713843988,144349,,1776,0
1620713843988,144369,,1786,0
1620713843988,144389,,1805,0
1620713843988,144409,,1840,0
1620713843988,144430,,1863,0
1620713843988,144450,,1939,0
1620713843988,144470,,1968,0
1620713843988,144490,,1977,0
1620713843988,144510,,1967,0
1620713843988,144530,,1938,0
1620713843988,144550,,1947,0
1620713843988,144570,,1911,0
1620713843988,144590,,1877,0
1620713843988,144610,,1842,0
1620713843988,144630,,1819,0
1620713843988,144650,,1830,0
1620713843988,144670,,1823,0
1620713844498,144690,,1831,0
1620713844498,144710,,1904,0
1620713844498,144730,,1973,0
1620713844498,144750,,1950,0
1620713844498,144770,,1904,0
1620713844498,144790,,1847,0
1620713844498,144810,,1819,0
1620713844498,144830,,1809,0
1620713844498,144850,,1829,0
1620713844498,144871,,1849,0
1620713844498,144891,,1844,0
1620713844498,144911,,1841,0
1620713844498,144931,,1843,0
1620713844498,144951,,1853,0
1620713844498,144971,,1853,0
1620713844498,144991,,1838,0
1620713844498,145011,,1831,0
1620713844498,145031,,1830,0
1620713844498,145051,,1835,0
1620713844498,145071,,1873,0
1620713844498,145092,,1904,0
1620713844498,145112,,1954,0
1620713844498,145132,,1996,0
1620713844498,145152,,1991,0
1620713844498,145172,,2064,0
1620713844993,145193,,2023,0
1620713844993,145213,,2032,0
1620713844993,145233,,2022,0
1620713844993,145253,,1945,0
1620713844993,145273,,1868,0
1620713844993,145293,,1776,0
1620713844993,145314,,1722,0
1620713844993,145334,,1705,0
1620713844993,145354,,1680,0
1620713844993,145374,,1759,0
1620713844993,145394,,1793,0
1620713844993,145414,,1822,0
1620713844993,145434,,1840,0
1620713844993,145454,,1839,0
1620713844993,145474,,1872,0
1620713844993,145494,,1855,0
1620713844993,145514,,1836,0
1620713844993,145535,,1819,0
1620713844993,145555,,1799,0
1620713844993,145575,,1825,0
1620713844993,145595,,1810,0
1620713844993,145615,,1807,0
1620713844993,145635,,1792,0
1620713844993,145655,,1793,0
1620713844993,145675,,1811,0
1620713845499,145695,,1821,0
1620713845499,145715,,1872,0
1620713845499,145735,,1926,0
1620713845499,145756,,1881,0
1620713845499,145776,,1861,1
1620713845499,145796,,1867,1
1620713845499,145816,,1903,1
1620713845499,145836,,1936,1
1620713845499,145856,,1959,1
1620713845499,145876,,1987,0
1620713845499,145896,,1982,0
1620713845499,145916,,1942,0
1620713845499,145936,,1890,0
1620713845499,145956,,1853,0
1620713845499,145977,,1834,0
1620713845499,145997,,1803,0
1620713845499,146017,,1764,0
1620713845499,146037,,1749,0
1620713845499,146057,,1755,0
1620713845499,146077,,1759,0
1620713845499,146097,,1815,0
1620713845499,146117,,1812,0
1620713845499,146137,,1810,0
1620713845499,146157,,1808,0
1620713845499,146177,,1806,0
1620713845999,146197,,1825,0
1620713845999,146217,,1895,0
1620713845999,146237,,1935,0
1620713845999,146257,,1899,0
1620713845999,146277,,1808,0
1620713845999,146297,,1813,0
1620713845999,146317,,1786,0
1620713845999,146337,,1769,0
1620713845999,146357,,1762,0
1620713845999,146377,,1744,0
1620713845999,146397,,1791,0
1620713845999,146418,,1780,0
1620713845999,146438,,1779,0
1620713845999,146458,,1773,0
1620713845999,146478,,1760,0
1620713845999,146498,,1808,0
1620713845999,146518,,1835,0
1620713845999,146538,,1871,0
1620713845999,146558,,1910,0
1620713845999,146578,,1919,0
1620713845999,146598,,1960,0
1620713845999,146618,,1930,0
1620713845999,146639,,1898,0
1620713845999,146659,,1866,0
1620713845999,146679,,1843,0
1620713846500,146699,,1834,0
1620713846500,146719,,1864,0
1620713846500,146739,,1904,0
1620713846500,146759,,1843,0
1620713846500,146779,,1781,0
1620713846500,146799,,1776,0
1620713846500,146819,,1775,0
1620713846500,146839,,1777,0
1620713846500,146860,,1792,0
1620713846500,146880,,1808,1
1620713846500,146900,,1845,1
1620713846500,146920,,1851,1
1620713846500,146940,,1840,1
1620713846500,146960,,1823,1
1620713846500,146980,,1821,1
1620713846500,147000,,1831,1
1620713846500,147020,,1829,1
1620713846500,147040,,1807,1
1620713846500,147060,,1795,1
1620713846500,147081,,1789,1
1620713846500,147101,,1801,1
1620713846500,147121,,1807,1
1620713846500,147141,,1808,1
1620713846500,147161,,1841,1
1620713846500,147181,,1885,1
1620713847017,147201,,1934,1
1620713847017,147221,,2013,0
1620713847017,147241,,2075,0
1620713847017,147261,,2009,0
1620713847017,147281,,1917,0
1620713847017,147302,,1826,0
1620713847017,147322,,1808,0
1620713847017,147342,,1776,0
1620713847017,147362,,1760,0
1620713847017,147382,,1759,0
1620713847017,147402,,1747,0
1620713847017,147422,,1811,0
1620713847017,147442,,1827,0
1620713847017,147462,,1853,0
1620713847017,147482,,1869,0
1620713847017,147502,,1859,0
1620713847017,147523,,1887,0
1620713847017,147543,,1936,0
1620713847017,147563,,1936,0
1620713847017,147583,,1922,0
1620713847017,147603,,1902,0
1620713847017,147623,,1862,0
1620713847017,147643,,1755,0
1620713847017,147663,,1703,0
1620713847017,147683,,1689,0
1620713847509,147704,,1707,0
1620713847509,147724,,1797,0
1620713847509,147745,,1893,0
1620713847509,147765,,1868,0
1620713847509,147785,,1831,0
1620713847509,147805,,1824,0
1620713847509,147825,,1859,0
1620713847509,147845,,1890,0
1620713847509,147865,,1917,0
1620713847509,147885,,1935,0
1620713847509,147905,,1938,0
1620713847509,147925,,1950,0
1620713847509,147945,,1934,0
1620713847509,147966,,1904,0
1620713847509,147986,,1869,0
1620713847509,148006,,1828,0
1620713847509,148026,,1830,0
1620713847509,148046,,1825,0
1620713847509,148066,,1815,0
1620713847509,148086,,1815,0
1620713847509,148106,,1824,0
1620713847509,148126,,1840,0
1620713847509,148146,,1866,0
1620713847509,148166,,1854,0
1620713847509,148187,,1842,0
1620713848009,148207,,1856,0
1620713848009,148227,,1916,1
1620713848009,148247,,1950,1
1620713848009,148267,,1885,1
1620713848009,148287,,1808,1
1620713848009,148307,,1763,1
1620713848009,148327,,1738,1
1620713848009,148347,,1762,1
1620713848009,148367,,1760,1
1620713848009,148387,,1770,1
1620713848009,148408,,1776,1
1620713848009,148428,,1778,1
1620713848009,148448,,1823,1
1620713848009,148468,,1818,1
1620713848009,148488,,1812,1
1620713848009,148508,,1826,1
1620713848009,148528,,1836,1
1620713848009,148548,,1923,1
1620713848009,148568,,1942,1
1620713848009,148588,,1941,1
1620713848009,148608,,1925,1
1620713848009,148629,,1878,1
1620713848009,148649,,1894,1
1620713848009,148669,,1866,1
1620713848009,148689,,1840,1
1620713881162,181363,,1842,0
1620713881162,181383,,1909,0
1620713881162,181403,,1954,1
1620713881162,181423,,1925,1
1620713881162,181443,,1854,1
1620713881162,181463,,1808,1
1620713881162,181483,,1783,1
1620713881162,181503,,1761,1
1620713881162,181523,,1801,1
1620713881162,181543,,1796,1
1620713881162,181564,,1802,1
1620713881162,181584,,1805,1
1620713881162,181604,,1777,1
1620713881162,181624,,1823,1
1620713881162,181644,,1815,1
1620713881162,181664,,1806,1
1620713881162,181684,,1795,1
1620713881162,181704,,1779,1
1620713881162,181724,,1807,1
1620713881162,181744,,1795,1
1620713881162,181764,,1791,1
1620713881162,181785,,1791,1
1620713881162,181805,,1802,1
1620713881162,181825,,1859,1
1620713881162,181845,,1893,1
1620713881666,181865,,1920,1
1620713881666,181885,,1977,1
1620713881666,181905,,2017,1
1620713881666,181925,,1962,1
1620713881666,181945,,1868,1
1620713881666,181965,,1801,1
1620713881666,181985,,1758,1
1620713881666,182006,,1742,1
1620713881666,182026,,1781,1
1620713881666,182046,,1790,1
1620713881666,182066,,1800,1
1620713881666,182086,,1811,1
1620713881666,182106,,1825,1
1620713881666,182126,,1857,1
1620713881666,182146,,1857,1
1620713881666,182166,,1850,1
1620713881666,182186,,1840,1
1620713881666,182206,,1837,1
1620713881666,182227,,1844,1
1620713881666,182247,,1840,1
1620713881666,182267,,1838,1
1620713881666,182287,,1833,1
1620713881666,182307,,1815,1
1620713881666,182327,,1816,1
1620713881666,182347,,1821,1
1620713882166,182367,,1829,1
1620713882166,182387,,1879,1
1620713882166,182407,,1931,1
1620713882166,182427,,1872,1
1620713882166,182448,,1823,1
1620713882166,182468,,1777,1
1620713882166,182488,,1760,1
1620713882166,182508,,1761,1
1620713882166,182528,,1765,1
1620713882166,182548,,1834,1
1620713882166,182568,,1869,1
1620713882166,182588,,1902,1
1620713882166,182608,,1921,1
1620713882166,182628,,1891,1
1620713882166,182648,,1922,1
1620713882166,182669,,1898,1
1620713882166,182689,,1865,1
1620713882166,182709,,1840,1
1620713882166,182729,,1797,1
1620713882166,182749,,1829,1
1620713882166,182769,,1814,1
1620713882166,182789,,1810,1
1620713882166,182809,,1812,1
1620713882166,182829,,1810,1
1620713882166,182849,,1851,1
1620713882669,182869,,1859,1
1620713882669,182890,,1918,1
1620713882669,182910,,1966,0
1620713882669,182930,,1905,0
1620713882669,182950,,1863,0
1620713882669,182970,,1813,0
1620713882669,182990,,1794,0
1620713882669,183010,,1789,0
1620713882669,183030,,1799,0
1620713882669,183050,,1833,0
1620713882669,183070,,1840,0
1620713882669,183090,,1840,0
1620713882669,183111,,1841,0
1620713882669,183131,,1838,0
1620713882669,183151,,1851,0
1620713882669,183171,,1840,0
1620713882669,183191,,1829,0
1620713882669,183211,,1835,0
1620713882669,183231,,1856,0
1620713882669,183251,,1894,0
1620713882669,183271,,1915,0
1620713882669,183291,,1913,0
1620713882669,183311,,1905,0
1620713882669,183332,,1903,0
1620713882669,183352,,1905,0
1620713883173,183372,,1915,0
1620713883173,183392,,1957,0
1620713883173,183412,,2003,0
1620713883173,183432,,1938,0
1620713883173,183452,,1872,0
1620713883173,183472,,1842,0
1620713883173,183492,,1819,0
1620713883173,183512,,1821,0
1620713883173,183532,,1828,0
1620713883173,183553,,1840,0
1620713883173,183573,,1872,0
1620713883173,183593,,1875,0
1620713883173,183613,,1884,0
1620713883173,183633,,1887,0
1620713883173,183653,,1861,0
1620713883173,183673,,1904,0
1620713883173,183693,,1889,0
1620713883173,183713,,1870,0
1620713883173,183733,,1847,0
1620713883173,183753,,1810,0
1620713883173,183774,,1840,0
1620713883173,183794,,1831,0
1620713883173,183814,,1815,0
1620713883173,183834,,1802,0
1620713883173,183854,,1785,0
1620713883680,183874,,1823,0
1620713883680,183894,,1889,0
1620713883680,183914,,1956,0
1620713883680,183934,,1924,0
1620713883680,183954,,1889,0
1620713883680,183974,,1873,0
1620713883680,183995,,1847,0
1620713883680,184015,,1829,0
1620713883680,184035,,1825,0
1620713883680,184055,,1833,0
1620713883680,184075,,1855,0
1620713883680,184095,,1853,0
1620713883680,184115,,1846,0
1620713883680,184135,,1845,0
1620713883680,184155,,1845,0
1620713883680,184175,,1875,0
1620713883680,184195,,1883,0
1620713883680,184216,,1882,0
1620713883680,184236,,1890,0
1620713883680,184256,,1893,0
1620713883680,184276,,1905,0
1620713883680,184296,,1901,0
1620713883680,184316,,1878,0
1620713883680,184336,,1854,0
1620713883680,184356,,1840,0
1620713884176,184376,,1837,0
1620713884176,184396,,1894,0
1620713884176,184416,,1938,0
1620713884176,184437,,1878,0
1620713884176,184457,,1818,0
1620713884176,184477,,1786,0
1620713884176,184497,,1762,0
1620713884176,184517,,1737,0
1620713884176,184537,,1730,0
1620713884176,184557,,1744,0
1620713884176,184577,,1744,0
1620713884176,184597,,1818,0
1620713884176,184617,,1813,0
1620713884176,184637,,1811,0
1620713884176,184658,,1815,0
1620713884176,184678,,1833,0
1620713884176,184698,,1895,0
1620713884176,184718,,1913,0
1620713884176,184738,,1915,0
1620713884176,184758,,1908,0
1620713884176,184778,,1870,0
1620713884176,184798,,1897,0
1620713884176,184818,,1872,0
1620713884176,184838,,1853,0
1620713884176,184858,,1839,0
1620713884677,184878,,1836,0
1620713884677,184898,,1887,0
1620713884677,184918,,1936,0
1620713884677,184938,,1888,0
1620713884677,184958,,1827,0
1620713884677,184978,,1791,0
1620713884677,184998,,1788,0
1620713884677,185018,,1780,0
1620713884677,185038,,1782,0
1620713884677,185058,,1779,0
1620713884677,185078,,1781,0
1620713884677,185099,,1809,0
1620713884677,185119,,1808,0
1620713884677,185139,,1805,0
1620713884677,185159,,1799,0
1620713884677,185179,,1792,0
1620713884677,185199,,1811,0
1620713884677,185219,,1811,0
1620713884677,185239,,1808,0
1620713884677,185259,,1808,0
1620713884677,185279,,1807,0
1620713884677,185299,,1810,0
1620713884677,185320,,1818,0
1620713884677,185340,,1799,0
1620713884677,185360,,1799,0
1620713885179,185380,,1815,0
1620713885179,185400,,1902,0
1620713885179,185420,,1980,0
1620713885179,185440,,1947,0
1620713885179,185460,,1902,0
1620713885179,185480,,1859,0
1620713885179,185500,,1837,0
1620713885179,185520,,1835,0
1620713885179,185541,,1813,0
1620713885179,185561,,1806,0
1620713885179,185581,,1799,0
1620713885179,185601,,1799,0
1620713885179,185621,,1821,0
1620713885179,185641,,1822,0
1620713885179,185661,,1818,0
1620713885179,185681,,1826,0
1620713885179,185701,,1812,0
1620713885179,185721,,1862,0
1620713885179,185741,,1854,0
1620713885179,185762,,1848,0
1620713885179,185782,,1840,0
1620713885179,185802,,1807,0
1620713885179,185822,,1843,0
1620713885179,185842,,1835,0
1620713885179,185862,,1826,0
1620713885682,185882,,1831,0
1620713885682,185902,,1882,0
1620713885682,185922,,1929,1
1620713885682,185942,,1872,1
1620713885682,185962,,1815,1
1620713885682,185983,,1777,1
1620713885682,186003,,1757,1
1620713885682,186023,,1785,1
1620713885682,186043,,1791,1
1620713885682,186063,,1809,1
1620713885682,186083,,1859,1
1620713885682,186103,,1905,1
1620713885682,186123,,1954,1
1620713885682,186143,,1958,1
1620713885682,186163,,1936,1
1620713885682,186183,,1910,1
1620713885682,186204,,1888,1
1620713885682,186224,,1891,1
1620713885682,186244,,1866,1
1620713885682,186264,,1846,1
1620713885682,186284,,1828,1
1620713885682,186304,,1809,1
1620713885682,186324,,1819,1
1620713885682,186344,,1818,1
1620713885682,186364,,1802,1
1620713886187,186384,,1882,1
1620713886187,186404,,1925,1
1620713886187,186425,,1961,1
1620713886187,186445,,1885,1
1620713886187,186465,,1808,1
1620713886187,186485,,1763,1
1620713886187,186505,,1757,1
1620713886187,186525,,1769,1
1620713886187,186545,,1787,1
1620713886187,186565,,1792,1
1620713886187,186585,,1799,1
1620713886187,186605,,1808,1
1620713886187,186625,,1811,1
1620713886187,186646,,1831,1
1620713886187,186666,,1819,1
1620713886187,186686,,1809,1
1620713886187,186706,,1803,1
1620713886187,186726,,1793,1
1620713886187,186746,,1819,1
1620713886187,186766,,1812,1
1620713886187,186786,,1818,1
1620713886187,186806,,1841,1
1620713886187,186826,,1856,1
1620713886187,186846,,1935,1
1620713886187,186867,,1947,1
1620713886686,186887,,1949,1
1620713886686,186907,,1985,1
1620713886686,186927,,1991,1
1620713886686,186947,,1951,1
1620713886686,186967,,1870,1
1620713886686,186987,,1808,1
1620713886686,187007,,1776,1
1620713886686,187027,,1757,1
1620713886686,187047,,1808,1
1620713886686,187067,,1812,1
1620713886686,187088,,1824,1
1620713886686,187108,,1835,1
1620713886686,187128,,1840,1
1620713886686,187148,,1878,1
1620713886686,187168,,1877,1
1620713886686,187188,,1865,1
1620713886686,187208,,1856,1
1620713886686,187228,,1842,1
1620713886686,187248,,1842,1
1620713886686,187268,,1831,1
1620713886686,187288,,1811,1
1620713886686,187309,,1808,1
1620713886686,187329,,1806,1
1620713886686,187349,,1824,1
1620713886686,187369,,1827,1
1620713887188,187389,,1835,1
1620713887188,187409,,1885,1
1620713887188,187429,,1937,0
1620713887188,187449,,1899,0
1620713887188,187469,,1835,0
1620713887188,187489,,1779,0
1620713887188,187509,,1744,0
1620713887188,187530,,1739,0
1620713887188,187550,,1764,0
1620713887188,187570,,1805,0
1620713887188,187590,,1845,0
1620713887188,187610,,1891,0
1620713887188,187630,,1917,0
1620713887188,187650,,1934,0
1620713887188,187670,,1950,0
1620713887188,187690,,1929,0
1620713887188,187710,,1904,0
1620713887188,187730,,1872,0
1620713887188,187751,,1838,0
1620713887188,187771,,1840,0
1620713887188,187791,,1813,0
1620713887188,187811,,1798,0
1620713887188,187831,,1796,0
1620713887188,187851,,1791,0
1620713887188,187871,,1831,0
1620713887719,187891,,1841,0
1620713887719,187911,,1904,0
1620713887719,187931,,1957,0
1620713887719,187951,,1872,0
1620713887719,187972,,1847,0
1620713887719,187992,,1790,0
1620713887719,188012,,1759,0
1620713887719,188032,,1751,0
1620713887719,188052,,1747,0
1620713887719,188072,,1793,0
1620713887719,188092,,1801,0
1620713887719,188112,,1806,0
1620713887719,188132,,1809,0
1620713887719,188152,,1818,0
1620713887719,188172,,1840,0
1620713887719,188193,,1831,0
1620713887719,188213,,1815,0
1620713887719,188233,,1807,0
1620713887719,188253,,1797,0
1620713887719,188273,,1820,0
1620713887719,188293,,1823,0
1620713887719,188313,,1855,0
1620713887719,188333,,1888,0
1620713887719,188353,,1908,0
1620713887719,188373,,1904,0
1620713888193,188394,,1967,0
1620713888193,188415,,1983,0
1620713888193,188435,,1972,0
1620713888193,188455,,1888,0
1620713888193,188475,,1802,0
1620713888193,188495,,1805,0
1620713888193,188515,,1811,0
1620713888193,188535,,1820,0
1620713888193,188555,,1831,0
1620713888193,188575,,1861,0
1620713888193,188595,,1805,0
1620713888193,188615,,1766,0
1620713888193,188636,,1757,0
1620713888193,188656,,1763,0
1620713888193,188676,,1787,0
1620713888193,188696,,1809,0
1620713888193,188716,,1819,0
1620713888193,188736,,1823,0
1620713888193,188756,,1821,0
1620713888193,188776,,1823,0
1620713888193,188796,,1845,0
1620713888193,188816,,1840,0
1620713888193,188836,,1837,0
1620713888193,188857,,1826,0
1620713888193,188877,,1802,0
1620713888710,188897,,1840,0
1620713888710,188917,,1885,0
1620713888710,188937,,1932,0
1620713888710,188957,,1882,0
1620713888710,188977,,1827,0
1620713888710,188997,,1872,0
1620713888710,189017,,1879,0
1620713888710,189037,,1893,0
1620713888710,189057,,1904,0
1620713888710,189078,,1879,0
1620713888710,189098,,1911,0
1620713888710,189118,,1887,0
1620713888710,189138,,1871,0
1620713888710,189158,,1860,0
1620713888710,189178,,1840,0
1620713888710,189198,,1858,0
1620713888710,189218,,1847,0
1620713888710,189238,,1841,0
1620713888710,189258,,1849,0
1620713888710,189278,,1856,0
1620713888710,189298,,1887,0
1620713888710,189318,,1877,0
1620713888710,189338,,1861,0
1620713888710,189358,,1846,0
1620713888710,189378,,1842,1
1620713889198,189398,,1841,1
1620713889198,189418,,1893,1
1620713889198,189438,,1910,1
1620713889198,189458,,1900,1
1620713889198,189478,,1821,1
1620713889198,189498,,1793,1
1620713889198,189519,,1773,1
1620713889198,189539,,1763,1
1620713889198,189559,,1759,1
1620713889198,189579,,1776,1
1620713889198,189599,,1808,1
1620713889198,189619,,1824,1
1620713889198,189639,,1821,1
1620713889198,189659,,1821,1
1620713889198,189679,,1818,1
1620713889198,189699,,1805,1
1620713889198,189719,,1873,1
1620713889198,189740,,1904,1
1620713889198,189760,,1936,0
1620713889198,189780,,1958,0
1620713889198,189800,,1947,0
1620713889198,189820,,1971,0
1620713889198,189840,,1936,0
1620713889198,189860,,1907,0
1620713889198,189880,,1874,0
1620713889701,189900,,1867,0
1620713889701,189920,,1911,0
1620713889701,189940,,1952,0
1620713889701,189961,,1894,0
1620713889701,189981,,1824,0
1620713889701,190001,,1760,0
1620713889701,190021,,1809,0
1620713889701,190041,,1809,0
1620713889701,190061,,1808,0
1620713889701,190081,,1812,0
1620713889701,190101,,1808,0
1620713889701,190121,,1840,0
1620713889701,190141,,1835,0
1620713889701,190161,,1824,0
1620713889701,190182,,1813,0
1620713889701,190202,,1794,0
1620713889701,190222,,1815,0
1620713889701,190242,,1808,0
1620713889701,190262,,1799,0
1620713889701,190282,,1801,0
1620713889701,190302,,1798,0
1620713889701,190322,,1811,0
1620713889701,190342,,1808,0
1620713889701,190362,,1806,0
1620713889701,190382,,1805,0
1620713890214,190402,,1809,0
1620713890214,190422,,1872,0
1620713890214,190442,,1913,0
1620713890214,190462,,1857,0
1620713890214,190482,,1786,0
1620713890214,190502,,1744,0
1620713890214,190522,,1755,0
1620713890214,190542,,1791,0
1620713890214,190562,,1840,0
1620713890214,190582,,1894,0
1620713890214,190602,,1929,0
1620713890214,190623,,1958,0
1620713890214,190643,,1949,0
1620713890214,190663,,1921,0
1620713890214,190683,,1886,0
1620713890214,190703,,1850,0
1620713890214,190723,,1833,0
1620713890214,190743,,1825,0
1620713890214,190763,,1807,0
1620713890214,190783,,1795,0
1620713890214,190803,,1791,0
1620713890214,190823,,1785,0
1620713890214,190844,,1826,0
1620713890214,190864,,1828,0
1620713890214,190884,,1828,0
1620713890703,190904,,1839,0
1620713890703,190924,,1893,0
1620713890703,190944,,1940,0
1620713890703,190964,,1883,0
1620713890703,190984,,1808,0
1620713890703,191004,,1759,0
1620713890703,191024,,1715,0
1620713890703,191044,,1759,0
1620713890703,191065,,1769,0
1620713890703,191085,,1779,0
1620713890703,191105,,1795,0
1620713890703,191125,,1787,0
1620713890703,191145,,1825,0
1620713890703,191165,,1819,0
1620713890703,191185,,1810,0
1620713890703,191205,,1804,0
1620713890703,191225,,1787,0
1620713890703,191245,,1813,0
1620713890703,191265,,1814,0
1620713890703,191286,,1830,0
1620713890703,191306,,1859,0
1620713890703,191326,,1898,0
1620713890703,191346,,1959,0
1620713890703,191366,,1959,0
1620713890703,191386,,1936,0
1620713891251,191407,,1918,0
1620713891251,191427,,1947,0
1620713891251,191447,,1963,1
1620713891251,191467,,1883,1
1620713891251,191487,,1807,1
1620713891251,191508,,1762,1
1620713891251,191528,,1746,1
1620713891251,191548,,1774,1
1620713891251,191568,,1799,1
1620713891251,191588,,1821,1
1620713891251,191608,,1841,1
1620713891251,191628,,1854,1
1620713891251,191648,,1869,1
1620713891251,191668,,1872,1
1620713891251,191688,,1853,1
1620713891251,191708,,1841,1
1620713891251,191729,,1831,1
1620713891251,191749,,1838,1
1620713891251,191769,,1830,1
1620713891251,191789,,1819,1
1620713891251,191809,,1807,1
1620713891251,191829,,1806,1
1620713891251,191849,,1808,1
1620713891251,191869,,1824,1
1620713891251,191889,,1811,1
1620713891709,191910,,1809,1
1620713891709,191930,,1861,1
1620713891709,191951,,1877,1
1620713891709,191971,,1887,1
1620713891709,191991,,1879,1
1620713891709,192011,,1875,1
1620713891709,192031,,1919,0
1620713891709,192051,,1880,0
1620713891709,192071,,1887,0
1620713891709,192091,,1862,0
1620713891709,192111,,1860,0
1620713891709,192131,,1856,0
1620713891709,192151,,1830,0
1620713891709,192171,,1870,0
1620713891709,192191,,1911,0
1620713891709,192211,,1921,0
1620713891709,192231,,1909,0
1620713891709,192251,,1888,0
1620713891709,192271,,1869,0
1620713891709,192291,,1847,0
1620713891709,192311,,1837,0
1620713891709,192331,,1808,0
1620713891709,192351,,1759,0
1620713891709,192371,,1763,0
1620713891709,192392,,1772,0
1620713892210,192412,,1798,0
1620713892210,192432,,1873,0
1620713892210,192452,,1936,0
1620713892210,192472,,1913,0
1620713892210,192492,,1846,0
1620713892210,192512,,1793,0
1620713892210,192532,,1767,0
1620713892210,192552,,1763,0
1620713892210,192572,,1792,0
1620713892210,192592,,1813,0
1620713892210,192613,,1826,0
1620713892210,192633,,1833,0
1620713892210,192653,,1829,0
1620713892210,192673,,1837,0
1620713892210,192693,,1822,0
1620713892210,192713,,1796,0
1620713892210,192733,,1790,0
1620713892210,192753,,1794,0
1620713892210,192773,,1829,0
1620713892210,192793,,1860,0
1620713892210,192813,,1881,0
1620713892210,192834,,1901,0
1620713892210,192854,,1898,0
1620713892210,192874,,1889,0
1620713892210,192894,,1873,0
1620713892712,192914,,1856,0
1620713892712,192934,,1889,0
1620713892712,192954,,1919,0
1620713892712,192974,,1825,0
1620713892712,192994,,1811,0
1620713892712,193014,,1759,0
1620713892712,193034,,1743,0
1620713892712,193055,,1755,0
1620713892712,193075,,1776,0
1620713892712,193095,,1851,0
1620713892712,193115,,1873,0
1620713892712,193135,,1887,0
1620713892712,193155,,1888,0
1620713892712,193175,,1872,0
1620713892712,193195,,1905,0
1620713892712,193215,,1885,0
1620713892712,193235,,1866,0
1620713892712,193255,,1851,0
1620713892712,193276,,1819,0
1620713892712,193296,,1849,0
1620713892712,193316,,1835,0
1620713892712,193336,,1808,0
1620713892712,193356,,1787,0
1620713892712,193376,,1770,0
1620713892712,193396,,1794,0
1620713893216,193416,,1794,0
1620713893216,193436,,1831,0
1620713893216,193456,,1874,0
1620713893216,193476,,1827,0
1620713893216,193496,,1776,0
1620713893216,193516,,1727,0
1620713893216,193536,,1722,0
1620713893216,193556,,1745,0
1620713893216,193576,,1797,0
1620713893216,193596,,1872,0
1620713893216,193616,,1918,0
1620713893216,193636,,1936,0
1620713893216,193656,,1936,0
1620713893216,193676,,1921,0
1620713893216,193696,,1917,0
1620713893216,193717,,1899,0
1620713893216,193737,,1868,0
1620713893216,193757,,1845,0
1620713893216,193777,,1833,0
1620713893216,193797,,1841,0
1620713893216,193817,,1856,0
1620713893216,193837,,1858,0
1620713893216,193857,,1850,0
1620713893216,193877,,1847,0
1620713893216,193897,,1847,0
1620713886187,186404,,1925,1
1620713886187,186425,,1961,1
1620713886187,186445,,1885,1
1620713886187,186465,,1808,1
1620713886187,186485,,1763,1
1620713886187,186505,,1757,1
1620713886187,186525,,1769,1
1620713886187,186545,,1787,1
1620713886187,186565,,1792,1
1620713886187,186585,,1799,1
1620713886187,186605,,1808,1
1620713886187,186625,,1811,1
1620713886187,186646,,1831,1
1620713886187,186666,,1819,1
1620713886187,186686,,1809,1
1620713886187,186706,,1803,1
1620713886187,186726,,1793,1
1620713886187,186746,,1819,1
1620713886187,186766,,1812,1
1620713886187,186786,,1818,1
1620713886187,186806,,1841,1
1620713886187,186826,,1856,1
1620713886187,186846,,1935,1
1620713886187,186867,,1947,1
1620713886686,186887,,1949,1
1620713886686,186907,,1985,1
1620713886686,186927,,1991,1
1620713886686,186947,,1951,1
1620713886686,186967,,1870,1
1620713886686,186987,,1808,1
1620713886686,187007,,1776,1
1620713886686,187027,,1757,1
1620713886686,187047,,1808,1
1620713886686,187067,,1812,1
1620713886686,187088,,1824,1
1620713886686,187108,,1835,1
1620713886686,187128,,1840,1
1620713886686,187148,,1878,1
1620713886686,187168,,1877,1
1620713886686,187188,,1865,1
1620713886686,187208,,1856,1
1620713886686,187228,,1842,1
1620713886686,187248,,1842,1
1620713886686,187268,,1831,1
1620713886686,187288,,1811,1
1620713886686,187309,,1808,1
1620713886686,187329,,1806,1
1620713886686,187349,,1824,1
1620713886686,187369,,1827,1
1620713887188,187389,,1835,1
1620713887188,187409,,1885,1
1620713887188,187429,,1937,0
1620713887188,187449,,1899,0
1620713887188,187469,,1835,0
1620713887188,187489,,1779,0
1620713887188,187509,,1744,0
1620713887188,187530,,1739,0
1620713887188,187550,,1764,0
1620713887188,187570,,1805,0
1620713887188,187590,,1845,0
1620713887188,187610,,1891,0
1620713887188,187630,,1917,0
1620713887188,187650,,1934,0
1620713887188,187670,,1950,0
1620713887188,187690,,1929,0
1620713887188,187710,,1904,0
1620713887188,187730,,1872,0
1620713887188,187751,,1838,0
1620713887188,187771,,1840,0
1620713887188,187791,,1813,0
1620713887188,187811,,1798,0
1620713887188,187831,,1796,0
1620713887188,187851,,1791,0
1620713887188,187871,,1831,0
1620713887719,187891,,1841,0
1620713887719,187911,,1904,0
1620713887719,187931,,1957,0
1620713887719,187951,,1872,0
1620713887719,187972,,1847,0
1620713887719,187992,,1790,0
1620713887719,188012,,1759,0
1620713887719,188032,,1751,0
1620713887719,188052,,1747,0
1620713887719,188072,,1793,0
1620713887719,188092,,1801,0
1620713887719,188112,,1806,0
1620713887719,188132,,1809,0
1620713887719,188152,,1818,0
1620713887719,188172,,1840,0
1620713887719,188193,,1831,0
1620713887719,188213,,1815,0
1620713887719,188233,,1807,0
1620713887719,188253,,1797,0
1620713887719,188273,,1820,0
1620713887719,188293,,1823,0
1620713887719,188313,,1855,0
1620713887719,188333,,1888,0
1620713887719,188353,,1908,0
1620713887719,188373,,1904,0
1620713888193,188394,,1967,0
1620713888193,188415,,1983,0
1620713888193,188435,,1972,0
1620713888193,188455,,1888,0
1620713888193,188475,,1802,0
1620713888193,188495,,1805,0
1620713888193,188515,,1811,0
1620713888193,188535,,1820,0
1620713888193,188555,,1831,0
1620713888193,188575,,1861,0
1620713888193,188595,,1805,0
1620713888193,188615,,1766,0
1620713888193,188636,,1757,0
1620713888193,188656,,1763,0
1620713888193,188676,,1787,0
1620713888193,188696,,1809,0
1620713888193,188716,,1819,0
1620713888193,188736,,1823,0
1620713888193,188756,,1821,0
1620713888193,188776,,1823,0
1620713888193,188796,,1845,0
1620713888193,188816,,1840,0
1620713888193,188836,,1837,0
1620713888193,188857,,1826,0
1620713888193,188877,,1802,0
1620713888710,188897,,1840,0
1620713888710,188917,,1885,0
1620713888710,188937,,1932,0
1620713888710,188957,,1882,0
1620713888710,188977,,1827,0
1620713888710,188997,,1872,0
1620713888710,189017,,1879,0
1620713888710,189037,,1893,0
1620713888710,189057,,1904,0
1620713888710,189078,,1879,0
1620713888710,189098,,1911,0
1620713888710,189118,,1887,0
1620713888710,189138,,1871,0
1620713888710,189158,,1860,0
1620713888710,189178,,1840,0
1620713888710,189198,,1858,0
1620713888710,189218,,1847,0
1620713888710,189238,,1841,0
1620713888710,189258,,1849,0
1620713888710,189278,,1856,0
1620713888710,189298,,1887,0
1620713888710,189318,,1877,0
1620713888710,189338,,1861,0
1620713888710,189358,,1846,0
1620713888710,189378,,1842,1
1620713889198,189398,,1841,1
1620713889198,189418,,1893,1
1620713889198,189438,,1910,1
1620713889198,189458,,1900,1
1620713889198,189478,,1821,1
1620713889198,189498,,1793,1
1620713889198,189519,,1773,1
1620713889198,189539,,1763,1
1620713889198,189559,,1759,1
1620713889198,189579,,1776,1
1620713889198,189599,,1808,1
1620713889198,189619,,1824,1
1620713889198,189639,,1821,1
1620713889198,189659,,1821,1
1620713889198,189679,,1818,1
1620713889198,189699,,1805,1
1620713889198,189719,,1873,1
1620713889198,189740,,1904,1
1620713889198,189760,,1936,0
1620713889198,189780,,1958,0
1620713889198,189800,,1947,0
1620713889198,189820,,1971,0
1620713889198,189840,,1936,0
1620713889198,189860,,1907,0
1620713889198,189880,,1874,0
1620713889701,189900,,1867,0
1620713889701,189920,,1911,0
1620713889701,189940,,1952,0
1620713889701,189961,,1894,0
1620713889701,189981,,1824,0
1620713889701,190001,,1760,0
1620713889701,190021,,1809,0
1620713889701,190041,,1809,0
1620713889701,190061,,1808,0
1620713889701,190081,,1812,0
1620713889701,190101,,1808,0
1620713889701,190121,,1840,0
1620713889701,190141,,1835,0
1620713889701,190161,,1824,0
1620713889701,190182,,1813,0
1620713889701,190202,,1794,0
1620713889701,190222,,1815,0
1620713889701,190242,,1808,0
1620713889701,190262,,1799,0
1620713889701,190282,,1801,0
1620713889701,190302,,1798,0
1620713889701,190322,,1811,0
1620713889701,190342,,1808,0
1620713889701,190362,,1806,0
1620713889701,190382,,1805,0
1620713890214,190402,,1809,0
1620713890214,190422,,1872,0
1620713890214,190442,,1913,0
1620713890214,190462,,1857,0
1620713890214,190482,,1786,0
1620713890214,190502,,1744,0
1620713890214,190522,,1755,0
1620713890214,190542,,1791,0
1620713890214,190562,,1840,0
1620713890214,190582,,1894,0
1620713890214,190602,,1929,0
1620713890214,190623,,1958,0
1620713890214,190643,,1949,0
1620713890214,190663,,1921,0
1620713890214,190683,,1886,0
1620713890214,190703,,1850,0
1620713890214,190723,,1833,0
1620713890214,190743,,1825,0
1620713890214,190763,,1807,0
1620713890214,190783,,1795,0
1620713890214,190803,,1791,0
1620713890214,190823,,1785,0
1620713890214,190844,,1826,0
1620713890214,190864,,1828,0
1620713890214,190884,,1828,0
1620713890703,190904,,1839,0
1620713890703,190924,,1893,0
1620713890703,190944,,1940,0
1620713890703,190964,,1883,0
1620713890703,190984,,1808,0
1620713890703,191004,,1759,0
1620713890703,191024,,1715,0
1620713890703,191044,,1759,0
1620713890703,191065,,1769,0
1620713890703,191085,,1779,0
1620713890703,191105,,1795,0
1620713890703,191125,,1787,0
1620713890703,191145,,1825,0
1620713890703,191165,,1819,0
1620713890703,191185,,1810,0
1620713890703,191205,,1804,0
1620713890703,191225,,1787,0
1620713890703,191245,,1813,0
1620713890703,191265,,1814,0
1620713890703,191286,,1830,0
1620713890703,191306,,1859,0
1620713890703,191326,,1898,0
1620713890703,191346,,1959,0
1620713890703,191366,,1959,0
1620713890703,191386,,1936,0
1620713891251,191407,,1918,0
1620713891251,191427,,1947,0
1620713891251,191447,,1963,1
1620713891251,191467,,1883,1
1620713891251,191487,,1807,1
1620713891251,191508,,1762,1
1620713891251,191528,,1746,1
1620713891251,191548,,1774,1
1620713891251,191568,,1799,1
1620713891251,191588,,1821,1
1620713891251,191608,,1841,1
1620713891251,191628,,1854,1
1620713891251,191648,,1869,1
1620713891251,191668,,1872,1
1620713891251,191688,,1853,1
1620713891251,191708,,1841,1
1620713891251,191729,,1831,1
1620713891251,191749,,1838,1
1620713891251,191769,,1830,1
1620713891251,191789,,1819,1
1620713891251,191809,,1807,1
1620713891251,191829,,1806,1
1620713891251,191849,,1808,1
1620713891251,191869,,1824,1
1620713891251,191889,,1811,1
1620713891709,191910,,1809,1
1620713891709,191930,,1861,1
1620713891709,191951,,1877,1
1620713891709,191971,,1887,1
1620713891709,191991,,1879,1
1620713891709,192011,,1875,1
1620713891709,192031,,1919,0
1620713891709,192051,,1880,0
1620713891709,192071,,1887,0
1620713891709,192091,,1862,0
1620713891709,192111,,1860,0
1620713891709,192131,,1856,0
1620713891709,192151,,1830,0
1620713891709,192171,,1870,0
1620713891709,192191,,1911,0
1620713891709,192211,,1921,0
1620713891709,192231,,1909,0
1620713891709,192251,,1888,0
1620713891709,192271,,1869,0
1620713891709,192291,,1847,0
1620713891709,192311,,1837,0
1620713891709,192331,,1808,0
1620713891709,192351,,1759,0
1620713891709,192371,,1763,0
1620713891709,192392,,1772,0
1620713892210,192412,,1798,0
1620713892210,192432,,1873,0
1620713892210,192452,,1936,0
1620713892210,192472,,1913,0
1620713892210,192492,,1846,0
1620713892210,192512,,1793,0
1620713892210,192532,,1767,0
1620713892210,192552,,1763,0
1620713892210,192572,,1792,0
1620713892210,192592,,1813,0
1620713892210,192613,,1826,0
1620713892210,192633,,1833,0
1620713892210,192653,,1829,0
1620713892210,192673,,1837,0
1620713892210,192693,,1822,0
1620713892210,192713,,1796,0
1620713892210,192733,,1790,0
1620713892210,192753,,1794,0
1620713892210,192773,,1829,0
1620713892210,192793,,1860,0
1620713892210,192813,,1881,0
1620713892210,192834,,1901,0
1620713892210,192854,,1898,0
1620713892210,192874,,1889,0
1620713892210,192894,,1873,0
1620713892712,192914,,1856,0
1620713892712,192934,,1889,0
1620713892712,192954,,1919,0
1620713892712,192974,,1825,0
1620713892712,192994,,1811,0
1620713892712,193014,,1759,0
1620713892712,193034,,1743,0
1620713892712,193055,,1755,0
1620713892712,193075,,1776,0
1620713892712,193095,,1851,0
1620713892712,193115,,1873,0
1620713892712,193135,,1887,0
1620713892712,193155,,1888,0
1620713892712,193175,,1872,0
1620713892712,193195,,1905,0
1620713892712,193215,,1885,0
1620713892712,193235,,1866,0
1620713892712,193255,,1851,0
1620713892712,193276,,1819,0
1620713892712,193296,,1849,0
1620713892712,193316,,1835,0
1620713892712,193336,,1808,0
1620713892712,193356,,1787,0
1620713892712,193376,,1770,0
1620713892712,193396,,1794,0
1620713893216,193416,,1794,0
1620713893216,193436,,1831,0
1620713893216,193456,,1874,0
1620713893216,193476,,1827,0
1620713893216,193496,,1776,0
1620713893216,193516,,1727,0
1620713893216,193536,,1722,0
1620713893216,193556,,1745,0
1620713893216,193576,,1797,0
1620713893216,193596,,1872,0
1620713893216,193616,,1918,0
1620713893216,193636,,1936,0
1620713893216,193656,,1936,0
1620713893216,193676,,1921,0
1620713893216,193696,,1917,0
1620713893216,193717,,1899,0
1620713893216,193737,,1868,0
1620713893216,193757,,1845,0
1620713893216,193777,,1833,0
1620713893216,193797,,1841,0
1620713893216,193817,,1856,0
1620713893216,193837,,1858,0
1620713893216,193857,,1850,0
1620713893216,193877,,1847,0
1620713893216,193897,,1847,0
1620713893721,193917,,1869,0
1620713893721,193938,,1909,0
1620713893721,193958,,1943,0
1620713893721,193978,,1866,0
1620713893721,193998,,1783,0
1620713893721,194018,,1747,0
1620713893721,194038,,1712,0
1620713893721,194058,,1706,0
1620713893721,194078,,1712,0
1620713893721,194098,,1706,0
1620713893721,194118,,1768,0
1620713893721,194138,,1779,0
1620713893721,194159,,1794,0
1620713893721,194179,,1801,1
1620713893721,194199,,1783,1
1620713893721,194219,,1837,1
1620713893721,194239,,1844,1
1620713893721,194259,,1869,1
1620713893721,194279,,1901,1
1620713893721,194299,,1921,1
1620713893721,194319,,1977,1
1620713893721,194339,,1971,1
1620713893721,194359,,1950,1
1620713893721,194380,,1922,1
1620713893721,194400,,1878,1
1620713894221,194420,,1877,1
1620713894221,194440,,1904,1
1620713894221,194460,,1912,1
1620713894221,194480,,1876,1
1620713894221,194500,,1815,1
1620713894221,194520,,1802,1
1620713894221,194540,,1783,1
1620713894221,194560,,1793,1
1620713894221,194580,,1801,1
1620713894221,194601,,1808,1
1620713894221,194621,,1841,1
1620713894221,194641,,1853,1
1620713894221,194661,,1843,1
1620713894221,194681,,1829,1
1620713894221,194701,,1808,1
1620713894221,194721,,1807,1
1620713894221,194741,,1808,1
1620713894221,194761,,1792,1
1620713894221,194781,,1781,1
1620713894221,194801,,1776,1
1620713894221,194822,,1793,1
1620713894221,194842,,1810,1
1620713894221,194862,,1801,1
1620713894221,194882,,1794,1
1620713894221,194902,,1799,1
1620713894724,194922,,1835,1
1620713894724,194942,,1925,0
1620713894724,194962,,2032,0
1620713894724,194982,,2021,0
1620713894724,195002,,1995,0
1620713894724,195022,,1967,0
1620713894724,195043,,1957,0
1620713894724,195063,,1925,0
1620713894724,195083,,1904,0
1620713894724,195103,,1890,0
1620713894724,195123,,1875,0
1620713894724,195143,,1897,0
1620713894724,195163,,1882,0
1620713894724,195183,,1871,0
1620713894724,195203,,1863,0
1620713894724,195223,,1842,0
1620713894724,195243,,1887,0
1620713894724,195264,,1881,0
1620713894724,195284,,1869,0
1620713894724,195304,,1845,0
1620713894724,195324,,1808,0
1620713894724,195344,,1828,0
1620713894724,195364,,1799,0
1620713894724,195384,,1779,0
1620713894724,195404,,1773,0
1620713895225,195424,,1771,0
1620713895225,195444,,1826,0
1620713895225,195464,,1872,0
1620713895225,195485,,1824,0
1620713895225,195505,,1763,0
1620713895225,195525,,1738,0
1620713895225,195545,,1751,0
1620713895225,195565,,1755,0
1620713895225,195585,,1762,0
1620713895225,195605,,1776,0
1620713895225,195625,,1804,0
1620713895225,195645,,1847,0
1620713895225,195665,,1869,0
1620713895225,195685,,1900,0
1620713895225,195706,,1943,0
1620713895225,195726,,1987,0
1620713895225,195746,,2030,0
1620713895225,195766,,2021,0
1620713895225,195786,,1995,0
1620713895225,195806,,1962,0
1620713895225,195826,,1929,0
1620713895225,195846,,1906,0
1620713895225,195866,,1887,0
1620713895225,195886,,1870,0
1620713895225,195906,,1859,0
1620713895730,195926,,1863,0
1620713895730,195946,,1931,0
1620713895730,195966,,1982,0
1620713895730,195986,,1935,0
1620713895730,196006,,1861,0
1620713895730,196026,,1812,0
1620713895730,196046,,1781,0
1620713895730,196066,,1779,0
1620713895730,196086,,1767,0
1620713895730,196106,,1744,0
1620713895730,196126,,1735,0
1620713895730,196147,,1729,0
1620713895730,196167,,1766,0
1620713895730,196187,,1766,0
1620713895730,196207,,1774,0
1620713895730,196227,,1779,0
1620713895730,196247,,1770,0
1620713895730,196267,,1826,0
1620713895730,196287,,1831,0
1620713895730,196307,,1835,0
1620713895730,196327,,1839,0
1620713895730,196347,,1834,0
1620713895730,196368,,1866,0
1620713895730,196388,,1858,0
1620713895730,196408,,1857,0
1620713896229,196428,,1872,0
1620713896229,196448,,1951,0
1620713896229,196468,,2013,0
1620713896229,196488,,2010,0
1620713896229,196508,,1951,0
1620713896229,196528,,1897,0
1620713896229,196548,,1854,0
1620713896229,196568,,1842,0
1620713896229,196589,,1815,0
1620713896229,196609,,1804,0
1620713896229,196629,,1795,0
1620713896229,196649,,1796,0
1620713896229,196669,,1817,0
1620713896229,196689,,1827,0
1620713896229,196709,,1840,0
1620713896229,196729,,1852,0
1620713896229,196749,,1859,0
1620713896229,196769,,1878,0
1620713896229,196789,,1881,0
1620713896229,196810,,1872,0
1620713896229,196830,,1856,0
1620713896229,196850,,1834,0
1620713896229,196870,,1820,0
1620713896229,196890,,1808,0
1620713896229,196910,,1800,0
1620713896229,196448,,1951,0
1620713896229,196468,,2013,0
1620713896229,196488,,2010,0
1620713896229,196508,,1951,0
1620713896229,196528,,1897,0
1620713896229,196548,,1854,0
1620713896229,196568,,1842,0
1620713896229,196589,,1815,0
1620713896229,196609,,1804,0
1620713896229,196629,,1795,0
1620713896229,196649,,1796,0
1620713896229,196669,,1817,0
1620713896229,196689,,1827,0
1620713896229,196709,,1840,0
1620713896229,196729,,1852,0
1620713896229,196749,,1859,0
1620713896229,196769,,1878,0
1620713896229,196789,,1881,0
1620713896229,196810,,1872,0
1620713896229,196830,,1856,0
1620713896229,196850,,1834,0
1620713896229,196870,,1820,0
1620713896229,196890,,1808,0
1620713896229,196910,,1800,0
1620713896731,196930,,1799,0
1620713896731,196950,,1845,0
1620713896731,196970,,1879,0
1620713896731,196990,,1836,0
1620713896731,197010,,1783,0
1620713896731,197031,,1755,0
1620713896731,197051,,1744,0
1620713896731,197071,,1749,0
1620713896731,197091,,1782,0
1620713896731,197111,,1799,0
1620713896731,197131,,1830,0
1620713896731,197151,,1884,0
1620713896731,197171,,1917,0
1620713896731,197191,,2003,0
1620713896731,197211,,2001,0
1620713896731,197231,,1977,0
1620713896731,197252,,1938,0
1620713896731,197272,,1884,0
1620713896731,197292,,1891,0
1620713896731,197312,,1869,0
1620713896731,197332,,1846,0
1620713896731,197352,,1839,0
1620713896731,197372,,1810,0
1620713896731,197392,,1856,0
1620713896731,197412,,1856,0
1620713897236,197433,,1872,0
1620713897236,197453,,1952,0
1620713897236,197474,,1979,1
1620713897236,197494,,1957,1
1620713897236,197514,,1874,1
1620713897236,197534,,1819,1
1620713897236,197554,,1796,1
1620713897236,197574,,1786,1
1620713897236,197594,,1818,1
1620713897236,197614,,1821,1
1620713897236,197634,,1822,1
1620713897236,197654,,1831,1
1620713897236,197674,,1839,1
1620713897236,197694,,1859,1
1620713897236,197714,,1856,1
1620713897236,197734,,1850,1
1620713897236,197754,,1840,1
1620713897236,197774,,1831,1
1620713897236,197794,,1859,1
1620713897236,197814,,1892,1
1620713897236,197834,,1926,1
1620713897236,197854,,1968,1
1620713897236,197874,,1995,1
1620713897236,197894,,2010,1
1620713897236,197915,,1991,1
1620713897741,197936,,1954,1
1620713897741,197956,,1963,1
1620713897741,197976,,1951,1
1620713897741,197996,,1906,1
1620713897741,198016,,1824,1
1620713897741,198036,,1766,1
1620713897741,198056,,1744,1
1620713897741,198076,,1756,1
1620713897741,198096,,1782,1
1620713897741,198116,,1845,1
1620713897741,198137,,1859,1
1620713897741,198157,,1874,1
1620713897741,198177,,1875,1
1620713897741,198197,,1872,1
1620713897741,198217,,1870,1
1620713897741,198237,,1840,1
1620713897741,198257,,1825,1
1620713897741,198277,,1815,1
1620713897741,198297,,1790,1
1620713897741,198317,,1818,1
1620713897741,198337,,1807,1
1620713897741,198358,,1789,1
1620713897741,198378,,1778,1
1620713897741,198398,,1751,1
1620713897741,198418,,1790,1
1620713898367,198438,,1801,1
1620713898367,198458,,1870,1
1620713898367,198478,,1935,1
1620713898367,198498,,1901,1
1620713898367,198518,,1925,1
1620713898367,198538,,1947,1
1620713898367,198558,,1993,1
1620713898367,198579,,2045,1
1620713898367,198599,,2064,1
1620713898367,198619,,2094,1
1620713898367,198639,,2067,1
1620713898367,198659,,2033,1
1620713898367,198679,,1994,1
1620713898367,198699,,1951,1
1620713898367,198719,,1916,1
1620713898367,198739,,1846,1
1620713898367,198759,,1785,1
1620713898367,198779,,1744,1
1620713898367,198800,,1728,1
1620713898367,198820,,1743,1
1620713898367,198840,,1747,1
1620713898367,198860,,1758,1
1620713898367,198880,,1788,1
1620713898367,198900,,1797,1
1620713898367,198920,,1815,1
1620713899217,198940,,1826,1
1620713899217,198960,,1883,1
1620713899217,198980,,1926,1
1620713899217,199000,,1862,1
1620713899217,199021,,1795,1
1620713899217,199041,,1743,1
1620713899217,199061,,1707,1
1620713899217,199081,,1697,1
1620713899217,199101,,1698,1
1620713899217,199121,,1718,1
1620713899217,199141,,1749,1
1620713899217,199161,,1759,1
1620713899217,199181,,1776,1
1620713899217,199201,,1799,1
1620713899217,199221,,1819,1
1620713899217,199242,,1853,1
1620713899217,199262,,1872,1
1620713899217,199282,,1905,1
1620713899217,199302,,1968,1
1620713899217,199322,,2004,0
1620713899217,199342,,2075,0
1620713899217,199362,,2058,0
1620713899217,199382,,2021,0
1620713899217,199402,,1963,0
1620713899217,199422,,1887,0
1620713899244,199442,,1895,0
1620713899244,199463,,1911,0
1620713899244,199483,,1926,0
1620713899244,199503,,1843,0
1620713899244,199523,,1753,0
1620713899244,199543,,1766,0
1620713899244,199563,,1753,0
1620713899244,199583,,1773,0
1620713899244,199603,,1801,0
1620713899244,199623,,1813,0
1620713899244,199643,,1861,0
1620713899244,199663,,1856,0
1620713899244,199684,,1852,0
1620713899244,199704,,1834,0
1620713899244,199724,,1810,0
1620713899244,199744,,1849,0
1620713899244,199764,,1827,0
1620713899244,199784,,1797,0
1620713899244,199804,,1793,0
1620713899244,199824,,1776,0
1620713899244,199844,,1791,0
1620713899244,199864,,1778,0
1620713899244,199884,,1773,0
1620713899244,199905,,1775,0
1620713899244,199925,,1781,0
1620713899763,199945,,1811,0
1620713899763,199965,,1931,0
1620713899763,199985,,2043,0
1620713899763,200005,,2042,0
1620713899763,200025,,2010,0
1620713899763,200045,,2003,0
1620713899763,200065,,1974,0
1620713899763,200085,,1941,0
1620713899763,200105,,1914,0
1620713899763,200126,,1899,0
1620713899763,200146,,1890,0
1620713899763,200166,,1890,0
1620713899763,200186,,1840,0
1620713899763,200206,,1805,0
1620713899763,200226,,1783,0
1620713899763,200246,,1781,0
1620713899763,200266,,1808,0
1620713899763,200286,,1815,0
1620713899763,200306,,1817,0
1620713899763,200326,,1817,1
1620713899763,200347,,1820,1
1620713899763,200367,,1839,1
1620713899763,200387,,1839,1
1620713899763,200407,,1831,1
1620713899763,200427,,1835,1
1620713900363,200447,,1854,1
1620713900363,200467,,1922,1
1620713900363,200487,,1951,1
1620713900363,200507,,1919,1
1620713900363,200527,,1838,1
1620713900363,200547,,1754,1
1620713900363,200568,,1758,1
1620713900363,200588,,1746,1
1620713900363,200608,,1767,1
1620713900363,200628,,1811,1
1620713900363,200648,,1855,1
1620713900363,200668,,1964,1
1620713900363,200688,,2018,1
1620713900363,200708,,2046,1
1620713900363,200728,,2054,1
1620713900363,200748,,2027,1
1620713900363,200768,,2032,1
1620713900363,200789,,1975,1
1620713900363,200809,,1925,1
1620713900363,200829,,1891,1
1620713900363,200849,,1863,1
1620713900363,200869,,1879,1
1620713900363,200889,,1865,1
1620713900363,200909,,1843,1
1620713900363,200929,,1828,1
1620713900751,200949,,1835,1
1620713900751,200969,,1892,1
1620713900751,200989,,1943,1
1620713900751,201010,,1881,1
1620713900751,201030,,1798,1
1620713900751,201050,,1771,1
1620713900751,201070,,1777,1
1620713900751,201090,,1776,1
1620713900751,201110,,1776,1
1620713900751,201130,,1778,1
1620713900751,201150,,1792,1
1620713900751,201170,,1815,1
1620713900751,201190,,1831,1
1620713900751,201210,,1826,1
1620713900751,201231,,1811,1
1620713900751,201251,,1805,1
1620713900751,201271,,1808,1
1620713900751,201291,,1821,1
1620713900751,201311,,1817,1
1620713900751,201331,,1819,1
1620713900751,201351,,1838,1
1620713900751,201371,,1875,1
1620713900751,201391,,1953,1
1620713900751,201411,,2002,1
1620713900751,201431,,2047,1
1620713901249,201451,,2066,1
1620713901249,201471,,2125,1
1620713901249,201491,,2127,1
1620713901249,201511,,2057,1
1620713901249,201531,,1931,1
1620713901249,201551,,1840,1
1620713901249,201571,,1762,1
1620713901249,201591,,1776,1
1620713901249,201611,,1760,1
1620713901249,201631,,1759,1
1620713901249,201651,,1770,1
1620713901249,201672,,1776,1
1620713901249,201692,,1831,1
1620713901249,201712,,1837,1
1620713901249,201732,,1827,1
1620713901249,201752,,1817,1
1620713901249,201772,,1801,1
1620713901249,201792,,1823,1
1620713901249,201812,,1817,1
1620713901249,201832,,1802,1
1620713901249,201852,,1801,1
1620713901249,201872,,1793,1
1620713901249,201892,,1809,1
1620713901249,201912,,1798,1
1620713901249,201932,,1790,1
1620713901755,201952,,1797,1
1620713901755,201972,,1856,1
1620713901755,201992,,1911,1
1620713901755,202012,,1857,1
1620713901755,202032,,1785,1
1620713901755,202052,,1741,1
1620713901755,202072,,1729,1
1620713901755,202092,,1751,1
1620713901755,202113,,1786,1
1620713901755,202133,,1840,1
1620713901755,202153,,1900,1
1620713901755,202173,,1969,1
1620713901755,202193,,2037,1
1620713901755,202213,,2079,1
1620713901755,202233,,2055,1
1620713901755,202253,,1991,1
1620713901755,202273,,1934,1
1620713901755,202293,,1863,1
1620713901755,202313,,1886,1
1620713901755,202334,,1819,1
1620713901755,202354,,1773,1
1620713901755,202374,,1755,1
1620713901755,202394,,1744,1
1620713901755,202414,,1798,1
1620713901755,202434,,1817,1
1620713902254,202454,,1847,1
1620713902254,202474,,1938,1
1620713902254,202494,,1981,1
1620713902254,202514,,2000,1
1620713902254,202534,,1927,1
1620713902254,202555,,1824,1
1620713902254,202575,,1756,1
1620713902254,202595,,1696,1
1620713902254,202615,,1713,1
1620713902254,202635,,1711,1
1620713902254,202655,,1723,1
1620713902254,202675,,1744,1
1620713902254,202695,,1749,1
1620713902254,202715,,1806,1
1620713902254,202735,,1811,1
1620713902254,202755,,1815,1
1620713902254,202776,,1817,1
1620713902254,202796,,1821,1
1620713902254,202816,,1885,1
1620713902254,202836,,1930,1
1620713902254,202856,,1972,1
1620713902254,202876,,2005,1
1620713902254,202896,,2016,1
1620713902254,202916,,2033,1
1620713902254,202936,,2000,1
1620713902761,202957,,1951,1
1620713902761,202977,,1958,1
1620713902761,202998,,1981,1
1620713902761,203018,,1914,1
1620713902761,203038,,1827,1
1620713902761,203058,,1771,1
1620713902761,203078,,1759,1
1620713902761,203098,,1783,1
1620713902761,203118,,1823,1
1620713902761,203138,,1882,1
1620713902761,203158,,1886,1
1620713902761,203178,,1889,1
1620713902761,203198,,1874,1
1620713902761,203219,,1868,1
1620713902761,203239,,1858,1
1620713902761,203259,,1839,1
1620713902761,203279,,1817,1
1620713902761,203299,,1808,1
1620713902761,203319,,1817,1
1620713902761,203339,,1826,1
1620713902761,203359,,1821,1
1620713902761,203379,,1817,1
1620713902761,203399,,1823,1
1620713902761,203419,,1823,1
1620713902761,203440,,1839,1
1620713903259,203460,,1839,1
1620713903259,203480,,1919,1
1620713903259,203500,,2014,1
1620713903259,203520,,2003,1
1620713903259,203540,,2043,1
1620713903259,203560,,2041,1
1620713903259,203580,,2030,1
1620713903259,203600,,2006,1
1620713903259,203620,,1952,1
1620713903259,203640,,1967,1
1620713903259,203661,,1927,1
1620713903259,203681,,1891,1
1620713903259,203701,,1859,1
1620713903259,203721,,1819,1
1620713903259,203741,,1856,1
1620713903259,203761,,1845,1
1620713903259,203781,,1853,1
1620713903259,203801,,1861,1
1620713903259,203821,,1865,1
1620713903259,203841,,1901,1
1620713903259,203861,,1885,1
1620713903259,203882,,1866,1
1620713903259,203902,,1840,1
1620713903259,203922,,1808,1
1620713903259,203942,,1820,1
1620713903761,203962,,1815,1
1620713903761,203982,,1870,1
1620713903761,204002,,1895,1
1620713903761,204022,,1867,1
1620713903761,204042,,1800,1
1620713903761,204062,,1747,1
1620713903761,204082,,1725,1
1620713903761,204103,,1717,1
1620713903761,204123,,1732,1
1620713903761,204143,,1770,1
1620713903761,204163,,1779,1
1620713903761,204183,,1791,1
1620713903761,204203,,1811,1
1620713903761,204223,,1855,1
1620713903761,204243,,1936,1
1620713903761,204263,,2005,1
1620713903761,204283,,2056,1
1620713903761,204303,,2069,1
1620713903761,204324,,2045,1
1620713903761,204344,,1978,1
1620713903761,204364,,2005,1
1620713903761,204384,,2000,1
1620713903761,204404,,1894,1
1620713903761,204424,,1815,1
1620713903761,204444,,1773,1
1620713904265,204464,,1779,1
1620713904265,204484,,1842,1
1620713904265,204504,,1904,1
1620713904265,204524,,1869,1
1620713904265,204545,,1807,1
1620713904265,204565,,1811,1
1620713904265,204585,,1791,1
1620713904265,204605,,1775,1
1620713904265,204625,,1776,1
1620713904265,204645,,1751,1
1620713904265,204665,,1806,1
1620713904265,204685,,1803,1
1620713904265,204705,,1799,1
1620713904265,204725,,1790,1
1620713904265,204745,,1764,1
1620713904265,204765,,1824,1
1620713904265,204785,,1808,1
1620713904265,204805,,1791,1
1620713904265,204825,,1787,1
1620713904265,204845,,1771,1
1620713904265,204865,,1794,1
1620713904265,204885,,1785,1
1620713904265,204905,,1776,1
1620713904265,204925,,1767,1
1620713904265,204945,,1769,1
1620713904766,204965,,1805,1
1620713904766,204986,,1924,1
1620713904766,205006,,2017,1
1620713904766,205026,,2059,1
1620713904766,205046,,2009,1
1620713904766,205066,,1983,1
1620713904766,205086,,1925,1
1620713904766,205106,,1872,1
1620713904766,205126,,1819,1
1620713904766,205146,,1782,1
1620713904766,205166,,1783,1
1620713904766,205186,,1776,1
1620713904766,205207,,1774,1
1620713904766,205227,,1775,1
1620713904766,205247,,1785,1
1620713904766,205267,,1811,1
1620713904766,205287,,1830,1
1620713904766,205307,,1828,1
1620713904766,205327,,1831,1
1620713904766,205347,,1827,1
1620713904766,205367,,1825,1
1620713904766,205387,,1821,1
1620713904766,205407,,1795,1
1620713904766,205428,,1782,1
1620713904766,205448,,1776,1
1620713905266,205468,,1777,1
1620713905266,205488,,1853,1
1620713905266,205508,,1908,1
1620713905266,205528,,1863,1
1620713905266,205548,,1787,1
1620713905266,205568,,1746,1
1620713905266,205588,,1758,1
1620713905266,205608,,1746,1
1620713905266,205628,,1747,1
1620713905266,205649,,1775,1
1620713905266,205669,,1792,1
1620713905266,205689,,1930,1
1620713905266,205709,,2060,1
1620713905266,205729,,2054,1
1620713905266,205749,,2032,1
1620713905266,205769,,1971,1
1620713905266,205789,,1975,1
1620713905266,205809,,1921,1
1620713905266,205829,,1870,1
1620713905266,205849,,1827,1
1620713905266,205870,,1795,1
1620713905266,205890,,1821,1
1620713905266,205910,,1813,1
1620713905266,205930,,1810,1
1620713905266,205950,,1819,1
1620713905769,205970,,1827,1
1620713905769,205990,,1902,1
1620713905769,206010,,1961,1
1620713905769,206030,,1891,1
1620713905769,206050,,1817,1
1620713905769,206070,,1766,1
1620713905769,206091,,1749,1
1620713905769,206111,,1839,1
1620713905769,206131,,1807,1
1620713905769,206151,,1770,1
1620713905769,206171,,1745,1
1620713905769,206191,,1760,1
1620713905769,206211,,1769,1
1620713905769,206231,,1775,1
1620713905769,206251,,1783,1
1620713905769,206271,,1802,1
1620713905769,206291,,1802,1
1620713905769,206312,,1876,1
1620713905769,206332,,1832,1
1620713905769,206352,,1794,1
1620713905769,206372,,1776,1
1620713905769,206392,,1785,1
1620713905769,206412,,1830,1
1620713905769,206432,,1888,1
1620713905769,206452,,1953,1
1620713906319,206472,,2014,1
1620713906319,206492,,2101,1
1620713906319,206512,,2138,1
1620713906319,206533,,2064,1
1620713906319,206553,,1930,1
1620713906319,206573,,1837,1
1620713906319,206593,,1789,1
1620713906319,206613,,1807,1
1620713906319,206633,,1794,1
1620713906319,206653,,1799,1
1620713906319,206673,,1803,1
1620713906319,206693,,1783,1
1620713906319,206713,,1888,1
1620713906319,206733,,1889,1
1620713906319,206754,,1872,1
1620713906319,206774,,1854,1
1620713906319,206794,,1813,1
1620713906319,206814,,1851,1
1620713906319,206834,,1832,1
1620713906319,206854,,1818,1
1620713906319,206874,,1822,1
1620713906319,206894,,1808,1
1620713906319,206914,,1872,1
1620713906319,206934,,1872,1
1620713906319,206954,,1853,1
1620713906773,206974,,1840,1
1620713906773,206994,,1895,1
1620713906773,207014,,1919,1
1620713906773,207034,,1872,1
1620713906773,207054,,1804,1
1620713906773,207074,,1755,1
1620713906773,207094,,1722,1
1620713906773,207114,,1742,1
1620713906773,207134,,1743,1
1620713906773,207154,,1745,1
1620713906773,207174,,1754,1
1620713906773,207195,,1794,1
1620713906773,207215,,1875,1
1620713906773,207235,,1968,1
1620713906773,207255,,2014,1
1620713906773,207275,,2025,1
1620713906773,207295,,2017,1
1620713906773,207315,,2003,1
1620713906773,207335,,1962,1
1620713906773,207355,,1893,1
1620713906773,207375,,1849,1
1620713906773,207395,,1806,1
1620713906773,207416,,1791,1
1620713906773,207436,,1789,1
1620713906773,207456,,1776,1
1620713907274,207476,,1788,1
1620713907274,207496,,1868,1
1620713907274,207516,,1934,1
1620713907274,207536,,1904,1
1620713907274,207556,,1840,1
1620713907274,207576,,1791,1
1620713907274,207596,,1763,1
1620713907274,207616,,1730,1
1620713907274,207637,,1757,1
1620713907274,207657,,1759,1
1620713907274,207677,,1767,1
1620713907274,207697,,1770,1
1620713907274,207717,,1742,1
1620713907274,207737,,1774,1
1620713907274,207757,,1755,1
1620713907274,207777,,1750,1
1620713907274,207797,,1754,1
1620713907274,207817,,1739,1
1620713907274,207837,,1808,1
1620713907274,207858,,1840,1
1620713907274,207878,,1808,1
1620713907274,207898,,1781,1
1620713907274,207918,,1759,1
1620713907274,207938,,1786,1
1620713907274,207958,,1792,1
1620713907780,207978,,1830,1
1620713907780,207998,,1965,1
1620713907780,208018,,2075,0
1620713907780,208038,,2093,0
1620713907780,208058,,2014,0
1620713907780,208079,,1940,0
1620713907780,208099,,1875,0
1620713907780,208119,,1820,0
1620713907780,208139,,1803,0
1620713907780,208159,,1775,0
1620713907780,208179,,1758,0
1620713907780,208199,,1759,0
1620713907780,208219,,1780,0
1620713907780,208239,,1808,0
1620713907780,208259,,1870,0
1620713907780,208279,,1858,0
1620713907780,208300,,1856,0
1620713907780,208320,,1853,0
1620713907780,208340,,1865,0
1620713907780,208360,,1856,0
1620713907780,208380,,1840,0
1620713907780,208400,,1825,0
1620713907780,208420,,1819,0
1620713907780,208440,,1821,0
1620713907780,208460,,1821,0
1620713900751,201010,,1881,1
1620713900751,201030,,1798,1
1620713900751,201050,,1771,1
1620713900751,201070,,1777,1
1620713900751,201090,,1776,1
1620713900751,201110,,1776,1
1620713900751,201130,,1778,1
1620713900751,201150,,1792,1
1620713900751,201170,,1815,1
1620713900751,201190,,1831,1
1620713900751,201210,,1826,1
1620713900751,201231,,1811,1
1620713900751,201251,,1805,1
1620713900751,201271,,1808,1
1620713900751,201291,,1821,1
1620713900751,201311,,1817,1
1620713900751,201331,,1819,1
1620713900751,201351,,1838,1
1620713900751,201371,,1875,1
1620713900751,201391,,1953,1
1620713900751,201411,,2002,1
1620713900751,201431,,2047,1
1620713901249,201451,,2066,1
1620713901249,201471,,2125,1
1620713901249,201491,,2127,1
1620713901249,201511,,2057,1
1620713901249,201531,,1931,1
1620713901249,201551,,1840,1
1620713901249,201571,,1762,1
1620713901249,201591,,1776,1
1620713901249,201611,,1760,1
1620713901249,201631,,1759,1
1620713901249,201651,,1770,1
1620713901249,201672,,1776,1
1620713901249,201692,,1831,1
1620713901249,201712,,1837,1
1620713901249,201732,,1827,1
1620713901249,201752,,1817,1
1620713901249,201772,,1801,1
1620713901249,201792,,1823,1
1620713901249,201812,,1817,1
1620713901249,201832,,1802,1
1620713901249,201852,,1801,1
1620713901249,201872,,1793,1
1620713901249,201892,,1809,1
1620713901249,201912,,1798,1
1620713901249,201932,,1790,1
1620713901755,201952,,1797,1
1620713901755,201972,,1856,1
1620713901755,201992,,1911,1
1620713901755,202012,,1857,1
1620713901755,202032,,1785,1
1620713901755,202052,,1741,1
1620713901755,202072,,1729,1
1620713901755,202092,,1751,1
1620713901755,202113,,1786,1
1620713901755,202133,,1840,1
1620713901755,202153,,1900,1
1620713901755,202173,,1969,1
1620713901755,202193,,2037,1
1620713901755,202213,,2079,1
1620713901755,202233,,2055,1
1620713901755,202253,,1991,1
1620713901755,202273,,1934,1
1620713901755,202293,,1863,1
1620713901755,202313,,1886,1
1620713901755,202334,,1819,1
1620713901755,202354,,1773,1
1620713901755,202374,,1755,1
1620713901755,202394,,1744,1
1620713901755,202414,,1798,1
1620713901755,202434,,1817,1
1620713902254,202454,,1847,1
1620713902254,202474,,1938,1
1620713902254,202494,,1981,1
1620713902254,202514,,2000,1
1620713902254,202534,,1927,1
1620713902254,202555,,1824,1
1620713902254,202575,,1756,1
1620713902254,202595,,1696,1
1620713902254,202615,,1713,1
1620713902254,202635,,1711,1
1620713902254,202655,,1723,1
1620713902254,202675,,1744,1
1620713902254,202695,,1749,1
1620713902254,202715,,1806,1
1620713902254,202735,,1811,1
1620713902254,202755,,1815,1
1620713902254,202776,,1817,1
1620713902254,202796,,1821,1
1620713902254,202816,,1885,1
1620713902254,202836,,1930,1
1620713902254,202856,,1972,1
1620713902254,202876,,2005,1
1620713902254,202896,,2016,1
1620713902254,202916,,2033,1
1620713902254,202936,,2000,1
1620713902761,202957,,1951,1
1620713902761,202977,,1958,1
1620713902761,202998,,1981,1
1620713902761,203018,,1914,1
1620713902761,203038,,1827,1
1620713902761,203058,,1771,1
1620713902761,203078,,1759,1
1620713902761,203098,,1783,1
1620713902761,203118,,1823,1
1620713902761,203138,,1882,1
1620713902761,203158,,1886,1
1620713902761,203178,,1889,1
1620713902761,203198,,1874,1
1620713902761,203219,,1868,1
1620713902761,203239,,1858,1
1620713902761,203259,,1839,1
1620713902761,203279,,1817,1
1620713902761,203299,,1808,1
1620713902761,203319,,1817,1
1620713902761,203339,,1826,1
1620713902761,203359,,1821,1
1620713902761,203379,,1817,1
1620713902761,203399,,1823,1
1620713902761,203419,,1823,1
1620713902761,203440,,1839,1
1620713903259,203460,,1839,1
1620713903259,203480,,1919,1
1620713903259,203500,,2014,1
1620713903259,203520,,2003,1
1620713903259,203540,,2043,1
1620713903259,203560,,2041,1
1620713903259,203580,,2030,1
1620713903259,203600,,2006,1
1620713903259,203620,,1952,1
1620713903259,203640,,1967,1
1620713903259,203661,,1927,1
1620713903259,203681,,1891,1
1620713903259,203701,,1859,1
1620713903259,203721,,1819,1
1620713903259,203741,,1856,1
1620713903259,203761,,1845,1
1620713903259,203781,,1853,1
1620713903259,203801,,1861,1
1620713903259,203821,,1865,1
1620713903259,203841,,1901,1
1620713903259,203861,,1885,1
1620713903259,203882,,1866,1
1620713903259,203902,,1840,1
1620713903259,203922,,1808,1
1620713903259,203942,,1820,1
1620713903761,203962,,1815,1
1620713903761,203982,,1870,1
1620713903761,204002,,1895,1
1620713903761,204022,,1867,1
1620713903761,204042,,1800,1
1620713903761,204062,,1747,1
1620713903761,204082,,1725,1
1620713903761,204103,,1717,1
1620713903761,204123,,1732,1
1620713903761,204143,,1770,1
1620713903761,204163,,1779,1
1620713903761,204183,,1791,1
1620713903761,204203,,1811,1
1620713903761,204223,,1855,1
1620713903761,204243,,1936,1
1620713903761,204263,,2005,1
1620713903761,204283,,2056,1
1620713903761,204303,,2069,1
1620713903761,204324,,2045,1
1620713903761,204344,,1978,1
1620713903761,204364,,2005,1
1620713903761,204384,,2000,1
1620713903761,204404,,1894,1
1620713903761,204424,,1815,1
1620713903761,204444,,1773,1
1620713904265,204464,,1779,1
1620713904265,204484,,1842,1
1620713904265,204504,,1904,1
1620713904265,204524,,1869,1
1620713904265,204545,,1807,1
1620713904265,204565,,1811,1
1620713904265,204585,,1791,1
1620713904265,204605,,1775,1
1620713904265,204625,,1776,1
1620713904265,204645,,1751,1
1620713904265,204665,,1806,1
1620713904265,204685,,1803,1
1620713904265,204705,,1799,1
1620713904265,204725,,1790,1
1620713904265,204745,,1764,1
1620713904265,204765,,1824,1
1620713904265,204785,,1808,1
1620713904265,204805,,1791,1
1620713904265,204825,,1787,1
1620713904265,204845,,1771,1
1620713904265,204865,,1794,1
1620713904265,204885,,1785,1
1620713904265,204905,,1776,1
1620713904265,204925,,1767,1
1620713904265,204945,,1769,1
1620713904766,204965,,1805,1
1620713904766,204986,,1924,1
1620713904766,205006,,2017,1
1620713904766,205026,,2059,1
1620713904766,205046,,2009,1
1620713904766,205066,,1983,1
1620713904766,205086,,1925,1
1620713904766,205106,,1872,1
1620713904766,205126,,1819,1
1620713904766,205146,,1782,1
1620713904766,205166,,1783,1
1620713904766,205186,,1776,1
1620713904766,205207,,1774,1
1620713904766,205227,,1775,1
1620713904766,205247,,1785,1
1620713904766,205267,,1811,1
1620713904766,205287,,1830,1
1620713904766,205307,,1828,1
1620713904766,205327,,1831,1
1620713904766,205347,,1827,1
1620713904766,205367,,1825,1
1620713904766,205387,,1821,1
1620713904766,205407,,1795,1
1620713904766,205428,,1782,1
1620713904766,205448,,1776,1
1620713905266,205468,,1777,1
1620713905266,205488,,1853,1
1620713905266,205508,,1908,1
1620713905266,205528,,1863,1
1620713905266,205548,,1787,1
1620713905266,205568,,1746,1
1620713905266,205588,,1758,1
1620713905266,205608,,1746,1
1620713905266,205628,,1747,1
1620713905266,205649,,1775,1
1620713905266,205669,,1792,1
1620713905266,205689,,1930,1
1620713905266,205709,,2060,1
1620713905266,205729,,2054,1
1620713905266,205749,,2032,1
1620713905266,205769,,1971,1
1620713905266,205789,,1975,1
1620713905266,205809,,1921,1
1620713905266,205829,,1870,1
1620713905266,205849,,1827,1
1620713905266,205870,,1795,1
1620713905266,205890,,1821,1
1620713905266,205910,,1813,1
1620713905266,205930,,1810,1
1620713905266,205950,,1819,1
1620713905769,205970,,1827,1
1620713905769,205990,,1902,1
1620713905769,206010,,1961,1
1620713905769,206030,,1891,1
1620713905769,206050,,1817,1
1620713905769,206070,,1766,1
1620713905769,206091,,1749,1
1620713905769,206111,,1839,1
1620713905769,206131,,1807,1
1620713905769,206151,,1770,1
1620713905769,206171,,1745,1
1620713905769,206191,,1760,1
1620713905769,206211,,1769,1
1620713905769,206231,,1775,1
1620713905769,206251,,1783,1
1620713905769,206271,,1802,1
1620713905769,206291,,1802,1
1620713905769,206312,,1876,1
1620713905769,206332,,1832,1
1620713905769,206352,,1794,1
1620713905769,206372,,1776,1
1620713905769,206392,,1785,1
1620713905769,206412,,1830,1
1620713905769,206432,,1888,1
1620713905769,206452,,1953,1
1620713906319,206472,,2014,1
1620713906319,206492,,2101,1
1620713906319,206512,,2138,1
1620713906319,206533,,2064,1
1620713906319,206553,,1930,1
1620713906319,206573,,1837,1
1620713906319,206593,,1789,1
1620713906319,206613,,1807,1
1620713906319,206633,,1794,1
1620713906319,206653,,1799,1
1620713906319,206673,,1803,1
1620713906319,206693,,1783,1
1620713906319,206713,,1888,1
1620713906319,206733,,1889,1
1620713906319,206754,,1872,1
1620713906319,206774,,1854,1
1620713906319,206794,,1813,1
1620713906319,206814,,1851,1
1620713906319,206834,,1832,1
1620713906319,206854,,1818,1
1620713906319,206874,,1822,1
1620713906319,206894,,1808,1
1620713906319,206914,,1872,1
1620713906319,206934,,1872,1
1620713906319,206954,,1853,1
1620713906773,206974,,1840,1
1620713906773,206994,,1895,1
1620713906773,207014,,1919,1
1620713906773,207034,,1872,1
1620713906773,207054,,1804,1
1620713906773,207074,,1755,1
1620713906773,207094,,1722,1
1620713906773,207114,,1742,1
1620713906773,207134,,1743,1
1620713906773,207154,,1745,1
1620713906773,207174,,1754,1
1620713906773,207195,,1794,1
1620713906773,207215,,1875,1
1620713906773,207235,,1968,1
1620713906773,207255,,2014,1
1620713906773,207275,,2025,1
1620713906773,207295,,2017,1
1620713906773,207315,,2003,1
1620713906773,207335,,1962,1
1620713906773,207355,,1893,1
1620713906773,207375,,1849,1
1620713906773,207395,,1806,1
1620713906773,207416,,1791,1
1620713906773,207436,,1789,1
1620713906773,207456,,1776,1
1620713907274,207476,,1788,1
1620713907274,207496,,1868,1
1620713907274,207516,,1934,1
1620713907274,207536,,1904,1
1620713907274,207556,,1840,1
1620713907274,207576,,1791,1
1620713907274,207596,,1763,1
1620713907274,207616,,1730,1
1620713907274,207637,,1757,1
1620713907274,207657,,1759,1
1620713907274,207677,,1767,1
1620713907274,207697,,1770,1
1620713907274,207717,,1742,1
1620713907274,207737,,1774,1
1620713907274,207757,,1755,1
1620713907274,207777,,1750,1
1620713907274,207797,,1754,1
1620713907274,207817,,1739,1
1620713907274,207837,,1808,1
1620713907274,207858,,1840,1
1620713907274,207878,,1808,1
1620713907274,207898,,1781,1
1620713907274,207918,,1759,1
1620713907274,207938,,1786,1
1620713907274,207958,,1792,1
1620713907780,207978,,1830,1
1620713907780,207998,,1965,1
1620713907780,208018,,2075,0
1620713907780,208038,,2093,0
1620713907780,208058,,2014,0
1620713907780,208079,,1940,0
1620713907780,208099,,1875,0
1620713907780,208119,,1820,0
1620713907780,208139,,1803,0
1620713907780,208159,,1775,0
1620713907780,208179,,1758,0
